ID,HR,rMSSD,pNN50,SDNN,HF,LF,LFHF,Time
9_64_11_0,96.13738555,69.05490475,25.14619883,78.72741431,563.6303359,1232.063485,2.185942464,119.099844
10_27_50_0,96.04090771,50.29902704,4.294478528,87.03173677,53.08939338,188.2923536,3.546703807,114.8469234
10_27_47_0,96.00756478,19.84538142,2.116402116,27.91534283,107.6916195,71.95550284,0.66816251,118.6877804
10_27_47_2,95.33383901,22.58435453,5.319148936,46.62825831,133.7659096,186.0785313,1.391075887,118.6275633
9_93_21_4,95.29696328,25.54217791,2.352941176,35.00561145,40.14262462,28.61290676,0.712781166,118.4344539
10_62_47_1,95.12132922,20.64249732,3.743315508,49.5747822,86.71495714,211.1710942,2.435232643,119.076823
9_62_45_2,94.91298847,32.96189747,11.11111111,63.02200421,277.9852707,910.0672331,3.273796596,119.0876117
9_64_21_0,94.76642558,31.61667556,13.63636364,55.48537725,97.92592784,66.63058364,0.680418201,103.9819916
9_65_11_0,94.68695225,20.73997239,1.948051948,23.74833137,39.70793364,63.20802499,1.591823578,118.6097402
9_87_11_2,94.65918952,13.67661011,0.543478261,27.39906042,13.31895739,24.48277082,1.838189739,118.7618954
9_66_21_1,94.5486801,20.19713561,3.488372093,28.99483667,58.32326334,97.74202563,1.675866885,118.9437441
10_5_47_1,94.46098183,27.01664441,6.50887574,38.04265766,143.3985243,230.766718,1.609268429,117.4043737
9_94_11_2,94.2553449,16.41598446,0.540540541,27.71974878,18.45607902,150.0847601,8.131995962,118.7969405
9_8_21_4,94.1325714,59.07741741,48.71794872,45.54837887,391.9312926,194.1948365,0.495481836,119.0399354
10_83_47_2,93.99253453,20.19860709,3.225806452,34.67155257,75.05729622,118.7830965,1.58256562,118.8032828
9_8_21_7,93.6866732,103.8033386,54.38596491,86.18345732,318.1151505,44.19817543,0.138937663,118.5693031
9_8_21_5,93.62292763,62.13701737,51.92307692,55.23651238,297.4141556,369.2901309,1.241669651,118.3890609
9_8_21_6,93.62133994,67.94907299,50.87719298,49.95110587,178.1291764,163.2016806,0.916198479,119.0599623
9_65_11_1,93.49572202,22.09000719,2.027027027,30.04413586,55.48172013,83.06694255,1.497194794,116.9130341
9_8_21_1,93.49174906,89.40617828,53.14285714,63.61693486,742.2321567,640.5425961,0.862994941,118.6894645
9_29_11_1,93.4612279,30.01434062,12.12121212,31.22365302,159.0596484,271.4653317,1.706688871,118.6164379
9_80_11_1,93.38913754,18.73127526,2.747252747,42.04286771,21.7799837,38.25611642,1.756480488,118.5846531
10_5_47_2,93.3871725,24.71293223,5.464480874,30.90465384,68.70180662,77.69756874,1.130939237,118.9202404
10_27_50_1,93.35851263,21.71922545,2.732240437,48.90985098,49.06795732,427.5509505,8.713445063,119.0321167
10_62_47_0,93.16989422,28.43893915,6.024096386,48.97728159,87.26913584,621.3256488,7.11964938,118.9460136
9_66_21_3,93.06937321,19.4925813,3.448275862,26.91030926,64.01548076,62.53188662,0.976824447,118.5714474
10_62_50_2,92.79767628,24.2280846,4.371584699,48.51272763,180.6528508,351.8417823,1.947612676,118.6719443
10_5_47_0,92.70924198,34.26341622,19.29824561,44.28222366,109.9598392,328.8654442,2.990777785,118.8298907
10_24_47_2,92.55445883,66.51234101,15.12605042,86.5852753,91.7152169,313.9513255,3.423110538,118.7769834
9_62_45_3,92.54716655,33.44840805,8.620689655,56.19531311,433.6964187,572.0249705,1.318952488,118.5185311
10_62_47_2,92.51919222,23.78110138,3.867403315,36.40812705,75.82816308,329.9455905,4.351227526,119.0868852
9_94_11_1,92.50914956,14.39057013,0.549450549,29.86908881,12.05546034,76.5976584,6.353772997,118.9167659
9_62_21_4,92.46240129,28.29226295,3.825136612,45.00078046,310.6557694,524.6595822,1.688877639,118.9107611
9_94_21_1,92.44308131,13.45326828,0.543478261,16.55582944,7.655669181,19.12375409,2.497985955,118.9455409
10_83_47_0,92.4086204,28.04079351,6.896551724,45.31037421,162.5421901,253.4378505,1.559212721,118.7231322
9_8_21_0,92.0966208,75.99385838,62.5,56.7485829,433.754401,431.3902296,0.994549516,119.0499489
10_62_50_0,92.06831945,26.0233933,5.555555556,45.40500319,141.2000826,164.6104307,1.16579557,118.9637441
9_50_21_2,91.98351268,24.80509653,2.222222222,30.24675205,140.4316331,33.41170858,0.237921527,118.9436568
9_66_21_4,91.91809861,19.32569739,2.777777778,31.27282533,47.11752741,285.5671735,6.060741919,119.0041165
10_83_47_1,91.90820999,31.51084483,10.79545455,51.37941378,208.6136056,465.4931722,2.231365355,118.8734147
10_27_47_1,91.84105324,25.39191186,4.395604396,43.53648603,88.47085769,293.6857225,3.319575849,119.0791911
10_62_50_1,91.73835732,22.63653087,3.333333333,32.80102917,74.26088322,195.7629719,2.636151948,118.8933096
10_27_50_3,91.63815315,26.5643875,6.077348066,42.93013828,71.4609114,262.1776395,3.668825856,119.1224446
9_62_21_7,91.62046558,26.7253538,3.488372093,53.99011419,153.3011321,147.8564741,0.964483902,118.7110453
9_62_21_5,91.59254917,24.92163651,1.142857143,40.8899416,90.86210888,315.9360063,3.477093039,118.7909316
9_50_21_1,91.53813808,23.04402603,1.923076923,27.44551208,118.0108852,28.09023631,0.238030892,118.644126
10_27_50_2,91.45344179,25.54421083,9.444444444,42.94084242,104.2842099,190.0427126,1.822353669,118.439967
9_29_11_0,91.33960495,30.92887413,13.52941176,42.69035902,150.9405606,590.905207,3.914820541,119.0175757
9_8_11_1,91.2416615,93.47887473,61.19402985,90.25674763,860.2697213,1734.644355,2.016395918,118.9941713
10_3_47_0,91.17653122,86.54230399,6.818181818,79.36833831,205.033842,711.3319294,3.469339121,119.0555186
9_50_21_3,91.15359226,27.20114096,1.111111111,35.04654334,104.1963893,81.96214867,0.786612177,118.6740791
9_80_21_0,91.14151631,22.48544274,5.172413793,29.86673325,15.61762695,88.78920498,5.685191821,118.6159651
9_66_21_5,91.10282233,22.89014224,4.519774011,42.51176752,72.1962852,50.30913245,0.696838242,118.8330613
9_62_45_1,91.05595627,32.06884794,7.185628743,61.66743477,382.2360127,837.9535784,2.192241313,118.7281924
10_3_47_1,91.03636142,18.41598596,0.751879699,21.29605384,29.4329687,42.60452078,1.447510145,114.9013691
9_8_21_2,90.96964947,76.30026576,60.36585366,51.69219391,359.2512039,175.5656735,0.488698915,118.4992089
9_39_11_1,90.92702466,20.82973683,3.125,35.55056683,42.08917788,85.1331446,2.022684901,118.4893816
9_83_11_1,90.75840473,30.2489914,12.99435028,48.18189472,290.2173745,270.3875976,0.931672675,118.5578389
9_66_21_6,90.75771091,24.43717528,3.389830508,33.42993731,122.57133,92.21489662,0.752336591,118.8733096
9_93_21_5,90.75380938,28.01812439,5.617977528,41.33297965,184.8540145,341.849292,1.849293309,118.4444407
10_49_47_2,90.73936663,76.34887048,20.54794521,75.74882996,165.8409128,197.5878072,1.19142981,117.8903658
9_83_21_4,90.72129279,26.53478295,7.82122905,41.23738893,212.9991658,202.0359682,0.948529387,118.9254644
9_64_21_5,90.71997875,30.75624396,13.79310345,40.1976561,223.8666676,107.4647258,0.480038976,119.1542068
10_104_50_1,90.70765136,18.92954844,0.561797753,25.7700852,47.73338406,114.1370266,2.391136285,118.4825378
9_31_11_0,90.64159422,17.20911638,1.675977654,37.31910124,89.33268387,298.6219011,3.342806778,119.0001536
9_63_21_2,90.63618568,19.96708163,2.840909091,29.71937875,26.18072422,126.5914969,4.835293928,118.4553182
9_62_21_0,90.57390674,23.70134753,1.863354037,45.85602344,106.3083206,52.01903407,0.48932232,118.5213153
9_66_11_1,90.5365823,23.71518749,7.303370787,31.84681417,290.9287345,106.7030194,0.366766863,118.9303331
9_29_11_2,90.49770912,33.77759958,18.6440678,41.3339344,321.8632875,172.7559495,0.536737044,118.6465232
10_5_50_3,90.4003606,35.02788469,18.90243902,50.29741647,329.1583942,378.8324223,1.150912232,118.6691299
9_83_21_5,90.3545309,27.6167652,8.522727273,31.69170821,131.8633537,114.7656355,0.870337605,118.6839913
9_66_21_2,90.34828792,27.92985081,10.24096386,57.75694124,109.979384,151.6948203,1.379302327,118.4205164
9_64_21_2,90.34634978,36.69943556,18.94736842,47.74050517,148.2853448,182.4868309,1.230646435,118.097786
9_97_21_3,90.34350994,19.8486085,1.724137931,23.3339786,60.44390177,44.5568909,0.737161063,118.6884069
9_80_21_1,90.23040786,23.32986077,5.056179775,29.34279552,19.54902284,167.5219723,8.569327156,118.9681204
9_80_21_2,90.14826924,21.664812,3.409090909,24.10188981,25.31294958,89.01473785,3.51656916,118.5555957
10_83_50_0,90.13837854,31.45220552,15.73033708,46.97340989,349.1698111,426.039558,1.220150037,118.8876316
10_79_47_0,90.07535926,36.21991956,20.57142857,64.7430045,458.436031,627.4084362,1.368584478,118.7495007
10_5_50_0,90.05982137,36.34593559,11.04651163,55.72053839,114.8358067,246.2777518,2.14460767,118.9903456
9_83_21_0,89.93630449,38.61166629,13.63636364,57.43821188,302.5138198,478.4457978,1.581566747,119.0160168
9_39_21_1,89.74502351,102.3296591,12.82051282,91.655719,566.3528387,2122.025258,3.7468255,118.0653081
9_62_45_0,89.69691214,30.29005965,7.954545455,53.99734118,266.7848215,339.7839713,1.273625574,118.5684504
9_66_42_0,89.66080182,25.01045158,9.333333333,54.37699796,61.39876711,885.3582826,14.41980555,118.8166199
9_96_21_1,89.54207845,20.98696073,0.564971751,22.21603002,36.17387605,34.93919041,0.96586803,118.6775391
9_8_45_0,89.4636296,45.14901781,27.38853503,49.66828262,82.80986371,312.6336261,3.775318689,118.9765351
9_62_21_3,89.45543103,27.11571351,4.597701149,47.23212437,343.4113864,160.8737111,0.468457708,118.8109032
9_62_21_6,89.41193155,29.67393825,4.519774011,45.58829334,172.5222205,329.3278638,1.908901142,119.0405763
9_38_21_5,89.38092681,33.19220251,17.61363636,50.32187078,354.2891121,463.1993277,1.307404918,118.6608208
9_83_21_1,89.34370999,27.41213933,9.714285714,35.46017562,182.4291126,83.75953836,0.459134714,118.9053416
10_3_50_1,89.33734018,21.32407782,2.325581395,21.62956513,36.99474563,80.65474927,2.180167694,118.9794732
9_39_21_0,89.31309967,24.69975701,7.352941176,38.94811115,84.69585426,442.1461784,5.220399301,118.6971024
9_80_21_3,89.28628091,21.0063609,2.352941176,22.12250832,38.3642036,23.79667962,0.620283425,118.9379357
9_83_21_2,89.24009013,28.22313968,9.142857143,39.01794761,144.1728789,128.2014631,0.889220387,118.5330707
9_64_21_1,89.18902574,37.67627339,22.98850575,46.38146569,95.87191836,415.1215191,4.329959452,116.8904479
10_3_50_0,89.18651771,100.1389421,10.37735849,98.13511571,47.75577819,90.54996061,1.896104808,118.7687836
10_83_50_2,89.08674365,34.65589624,19.52662722,40.04956051,305.9259028,328.3439851,1.073279451,118.4769489
10_104_47_1,89.00470017,20.40101163,2.395209581,40.97573312,66.91595979,95.80405187,1.431707057,118.9117127
9_95_21_2,88.99571925,17.67604856,1.142857143,26.3359203,19.708085,81.93185079,4.157271027,118.7077053
9_95_21_3,88.99571925,14.06793062,0.568181818,18.46987094,27.1403339,108.4563879,3.996133146,118.9995187
9_97_21_2,88.99509935,18.16465948,0.574712644,18.61446534,63.18243105,31.56446096,0.499576551,118.5274053
9_49_11_1,88.98927706,32.55456677,12.57142857,46.32632251,513.0168715,139.0356656,0.271015776,118.9384918
10_49_47_0,88.95878521,38.18715188,14.70588235,69.49151498,192.3862472,344.3226475,1.789746682,117.5784067
10_5_50_2,88.92624676,28.90592445,11.11111111,45.6418352,89.74586734,192.7271236,2.147476305,119.0907255
9_80_21_6,88.92608848,22.66778463,2.325581395,20.23544582,14.80643967,58.33800619,3.940042811,118.5555957
9_80_21_4,88.8755856,25.56640794,5.780346821,33.94418236,12.42164756,126.4705937,10.18146692,118.978182
9_39_11_0,88.85124902,30.75965319,12.76595745,53.50076859,133.9122107,414.8839525,3.098178652,118.7301117
9_29_42_0,88.85094696,83.26797027,13.91304348,96.00054542,320.6759894,342.2768645,1.067360438,118.9305605
9_66_11_0,88.83228481,27.6794006,9.195402299,40.44010868,284.6552973,215.4302232,0.75681087,119.0611253
9_97_11_1,88.81093226,21.85572292,4.597701149,47.34211858,104.8998311,250.5289353,2.388268243,118.9284334
9_38_21_2,88.80250875,37.85596955,18.49710983,55.26298931,170.4744129,164.1210411,0.962731229,118.4700801
9_93_21_3,88.75073723,22.22784461,1.156069364,35.49059183,95.67061854,127.3646012,1.331282301,118.5243358
9_85_21_7,88.73503511,14.88129335,0.568181818,24.5128882,38.77676362,18.34337542,0.473050706,119.1392957
9_38_21_3,88.71127048,35.99665174,20.57142857,44.91957535,359.8333592,149.0206798,0.414138034,118.5604309
9_56_21_6,88.62990392,33.64344698,20.51282051,45.33755896,19.25880352,74.34946656,3.860544424,117.8576257
9_62_21_1,88.57095953,30.015703,7.01754386,49.05370747,122.0609932,236.4727636,1.937332782,119.15042
9_79_21_5,88.49500147,55.6620887,31.75675676,73.51399447,632.6618681,227.7517538,0.359989696,118.8366144
9_80_21_7,88.4810003,25.145324,4.571428571,25.17452178,16.92359539,58.24825431,3.441836854,118.8473815
9_49_11_0,88.43265884,31.27039616,14.45086705,42.04843622,213.8068699,218.1399865,1.020266498,118.5460884
9_49_21_4,88.41517,30.24323513,13.01775148,47.01027924,151.1093617,267.978674,1.773408815,118.3404605
9_50_21_0,88.37352804,28.62834067,5.063291139,46.45390461,105.7931513,550.8032635,5.206417022,118.644126
9_62_21_2,88.3608744,25.31696696,4.624277457,48.56312877,170.1288486,203.2612918,1.194749118,119.0605479
9_85_11_0,88.34197001,13.71160639,0.571428571,22.30703181,25.26346667,47.66827562,1.886846182,118.5554598
9_96_45_0,88.31376875,22.22931104,1.183431953,28.87760797,62.98651181,30.29038864,0.48090278,119.1233742
10_104_50_0,88.27329903,19.78200418,1.734104046,33.65263512,75.66969587,125.5900389,1.659713806,118.8132706
9_62_42_0,88.23083907,52.49727922,9.580838323,89.35178637,257.8368755,312.7368666,1.212925288,118.4758611
9_83_11_0,88.11026077,64.50159568,21.59090909,74.27986214,562.6252047,323.4888124,0.574963243,119.1514329
9_80_21_5,88.06749459,25.29809958,5.747126437,35.815181,52.3730322,93.65686419,1.788265072,118.6159651
9_24_11_0,87.98896432,26.27642584,1.694915254,35.47753883,43.71708771,97.8087665,2.237312036,118.4644995
9_97_21_6,87.96425133,23.46129268,3.488372093,23.398187,126.1191613,35.45424701,0.281117054,118.6783443
9_83_21_3,87.93641601,31.55982856,13.79310345,44.65825137,227.9361949,323.982103,1.421371903,118.9858326
9_62_11_0,87.90416125,29.78234549,5.813953488,54.42797269,148.0594653,704.6247701,4.759066019,118.6997128
10_5_50_1,87.85901953,38.34103371,17.26190476,48.10710691,256.6893122,631.5749758,2.460464639,118.6289779
9_66_21_7,87.79609816,23.84579068,6.395348837,39.41084501,117.6543652,153.4481026,1.304227874,118.933682
9_85_21_1,87.77215905,17.0389291,0.574712644,26.14310046,49.39158235,30.88873593,0.625384619,118.6563393
9_97_11_0,87.76062081,18.09871724,0.574712644,28.91083698,50.88776692,136.7618201,2.6875186,118.8278172
9_85_21_0,87.73910386,18.21428186,3.012048193,20.02075142,59.51732375,60.02499557,1.008529816,118.736832
9_64_21_6,87.69900926,41.18511937,20.39473684,54.03720196,152.6601094,651.8153026,4.269715941,119.103901
9_63_21_3,87.68828715,24.37488397,4.022988506,30.80972745,109.1585383,94.69373095,0.867488082,118.8678792
9_85_11_1,87.6770236,16.57150899,0.574712644,22.4743989,44.42813022,25.29206476,0.569280423,118.9579226
9_97_21_5,87.66549101,23.21353201,5.172413793,31.43044217,120.7945996,237.3776852,1.965134915,118.889659
10_104_47_0,87.51441399,24.03514087,3.550295858,45.4759211,118.3493142,44.35400556,0.374771969,118.8215141
9_45_11_0,87.51401733,84.41826803,56.83453237,66.4780217,669.1820218,185.3738865,0.277015641,118.3233242
9_49_21_3,87.48102299,31.48175246,16.27906977,39.23902804,135.4886753,469.0743836,3.46209292,119.0447482
10_49_47_1,87.48025932,34.60157878,18.35443038,48.2190368,176.2644602,198.9033155,1.128436869,118.9973176
9_97_21_1,87.47864567,19.10477718,1.744186047,22.48326651,60.47574237,82.94007112,1.371460157,118.8091582
10_83_50_3,87.39597427,67.63526841,18,81.378162,259.2470749,348.0363448,1.342488994,118.5670988
9_63_21_4,87.35709742,21.29047982,4.069767442,26.20031936,48.03786562,122.1719992,2.543243702,118.8980665
10_45_47_1,87.3559801,27.52906013,7.575757576,62.89382316,52.58355775,184.4179008,3.507140039,118.9874143
9_39_45_0,87.33420032,26.90058514,9.150326797,50.7475451,64.05121413,237.9159715,3.714464662,117.9391607
10_3_50_2,87.31928822,26.66538683,7.558139535,33.51009437,115.4960747,266.1021714,2.303993205,118.8289806
9_23_11_1,87.27841945,32.07687397,15.29411765,43.01580709,111.4086632,165.6428521,1.486804054,118.7317453
9_96_21_2,87.25346429,24.2514122,1.183431953,28.20944112,38.88358573,28.80119075,0.740703055,119.0669405
9_38_21_6,87.23181977,35.54647959,22.5433526,48.48908008,357.8447033,254.7848324,0.711998334,118.8013666
9_97_21_4,87.18742318,25.28050562,6.470588235,24.35925531,129.5195219,69.35650529,0.535490745,118.6582191
9_93_21_2,87.16982398,28.0514744,2.906976744,43.8820571,116.8315135,239.5174994,2.050110387,118.4744014
9_96_42_0,87.10677925,20.47825005,1.156069364,25.67213458,59.18995552,101.6395394,1.717175465,118.884572
9_50_21_4,87.05690874,27.41249389,4.678362573,43.24890124,198.7537196,292.3620454,1.470976473,118.6840635
9_45_11_4,87.04312519,88.08712618,63.76811594,60.45980149,828.977412,629.4247775,0.759278562,118.7850934
9_2_11_1,86.96310216,34.62700008,17.94871795,48.78407859,492.6091987,179.2919011,0.36396377,118.35199
9_95_21_0,86.94431677,19.38871225,2.298850575,33.66856717,18.79390702,119.988371,6.384429315,119.1403942
10_83_50_1,86.80500271,68.736286,22.75449102,78.34745039,302.7551958,538.1848871,1.77762395,118.9577481
9_2_11_0,86.79636555,38.9151773,16.4556962,43.42255444,255.9241221,90.86868595,0.355061044,118.4220741
10_106_47_1,86.77179881,22.91364938,4.093567251,27.67524068,89.09754841,63.694358,0.714883396,118.54182
10_85_47_0,86.76953158,18.94337937,2.339181287,35.18089347,68.664525,90.37251506,1.316145638,118.665176
10_85_47_1,86.76953158,19.23081158,2.352941176,32.34737816,88.01510606,205.6607701,2.336653096,118.8355424
9_79_11_2,86.74124691,59.93063356,33.75,81.65339773,502.3500961,553.2109383,1.10124581,115.7239557
9_95_21_1,86.73348238,22.60868462,4.21686747,35.23771053,89.87271323,521.6439743,5.8042531,118.4158918
9_64_21_4,86.68979573,65.68514979,24.50331126,73.40456121,255.9563055,549.7576087,2.147857259,118.9328615
9_79_21_8,86.62533672,50.76074917,39.64497041,63.59289388,642.8040035,389.2057503,0.605481217,118.8969937
9_38_21_7,86.56802252,40.91807076,29.16666667,52.82474461,382.015072,458.5630605,1.200379499,118.5805089
9_36_21_0,86.53421612,27.07755671,7.647058824,48.48433668,98.8339867,206.844999,2.092852934,119.0052235
9_45_11_3,86.52167577,105.8229696,65.71428571,66.02829274,437.6759219,132.0689412,0.30175053,118.9055549
9_38_21_1,86.4662721,36.37793016,21.42857143,49.79213894,313.5037241,390.9754118,1.247115686,118.9218345
9_85_21_2,86.46441428,16.25644557,1.744186047,27.51167622,70.23729171,60.0511122,0.854974768,118.9179407
9_64_21_3,86.43690534,50.68845044,30.90909091,51.12328401,277.3533845,239.7003236,0.864241567,116.0553724
9_85_21_5,86.42422874,16.85393738,1.176470588,31.30790562,33.93926773,161.3203372,4.753206184,118.8776943
9_2_11_2,86.37340323,32.26680944,13.49693252,42.68427389,427.3876807,130.1868465,0.304610667,116.9302844
9_49_21_2,86.36042314,33.08265626,18.23529412,37.50991193,195.3051863,210.8543426,1.079614662,118.9843807
9_96_21_5,86.34825777,25.55310989,1.754385965,27.03172461,85.7614813,155.8997295,1.817829253,118.9870633
9_49_21_7,86.33565984,31.93861295,14.79289941,43.49339249,223.3263448,180.7082833,0.809166888,119.0447482
9_95_11_1,86.32579461,16.51623903,1.764705882,25.29776893,22.79292778,64.20869586,2.817044677,118.8272384
10_66_50_0,86.32396262,18.82040507,2.597402597,31.18804545,39.12086854,149.1874846,3.813501339,118.6266906
9_46_21_1,86.30524554,43.60072559,32.29813665,57.07249509,369.1869032,609.3716872,1.650577748,118.501546
9_79_21_0,86.29704855,57.05079909,48.17073171,54.43651629,505.68039,188.9705834,0.373695692,118.5145912
9_87_45_0,86.29643973,18.9747021,1.183431953,32.90983003,31.25773753,140.4375302,4.492888523,118.448983
9_79_21_2,86.24167613,51.12998006,32.48407643,79.1277036,568.7376063,606.0000687,1.065517845,118.8567408
9_96_45_1,86.20761166,24.88276528,2.958579882,27.5712347,65.89145661,23.52695616,0.357056246,119.0534954
9_45_11_1,86.19005476,104.9073277,62.75862069,75.74730737,1182.672323,1372.082543,1.160154437,118.8152088
9_93_21_1,86.1528375,35.86431117,9.62962963,37.27900367,67.72541079,183.8621037,2.714817106,118.164808
9_39_45_3,86.13032077,26.78068911,6.918238994,40.68940868,136.8674298,161.1593575,1.177485087,118.7313717
9_64_45_0,86.1096305,71.12518167,25.35211268,86.92238504,234.8758126,1352.546393,5.758559718,118.5222214
9_93_45_3,86.08908146,93.99528292,21.875,99.70379219,130.9109656,409.4387159,3.127612069,118.5073971
9_44_21_0,86.0378405,60.48799302,30.26315789,41.63775588,99.59202485,194.3487058,1.951448482,118.9882717
9_85_42_0,86.03404848,23.32842096,6.586826347,52.67178189,57.07401748,119.0883382,2.086559584,118.5893089
9_49_21_0,86.00303724,68.52189925,26.84563758,64.5781493,263.3583324,454.9429438,1.727467438,119.0849932
9_31_21_1,86.00098085,30.53247086,9.937888199,49.99975147,42.52909621,681.0170102,16.01296691,119.0933529
10_96_47_2,85.85840216,21.20559049,1.19047619,42.69059706,63.44161363,151.2672556,2.384353849,118.2911102
9_96_21_4,85.85692399,26.12324273,2.976190476,25.70864779,46.67303848,32.72242159,0.701099021,118.5577234
9_50_45_0,85.84340306,23.82749063,3.592814371,43.68084487,64.76001148,52.90819521,0.816988663,118.6113276
9_39_45_2,85.7352555,31.41322614,15.48387097,48.0935329,144.6024044,270.5321828,1.870869187,118.9018475
9_73_21_2,85.62406438,27.38200947,0.653594771,43.12026698,33.99969599,89.23352861,2.624539014,117.0644789
9_8_45_1,85.61592171,54.61658632,31.61290323,37.99922095,246.1239872,299.9055309,1.218514027,118.4559377
9_43_21_1,85.56921412,38.1663536,23.95209581,41.61905004,193.010141,324.7757247,1.68268736,118.7156971
9_38_21_4,85.56042029,43.61644544,31.76470588,49.21806517,515.9158727,206.1267563,0.399535597,118.9921074
10_66_50_2,85.55407136,26.89419952,1.764705882,40.86102897,75.48204441,312.5960216,4.141329558,118.7876495
9_24_21_0,85.4525827,25.43704173,6.779661017,47.86517063,76.35175023,539.0114684,7.05958235,117.1866843
9_36_21_1,85.45168582,23.83838047,4.761904762,44.88194139,100.8190296,60.58348868,0.60091323,118.4936966
9_63_45_1,85.43459004,26.50596205,3.550295858,36.89851551,39.90352069,36.28144394,0.909229143,118.6484903
10_66_47_0,85.32029685,24.17253371,6.097560976,53.52287585,92.55900536,435.6744013,4.706990958,118.9717106
9_84_11_1,85.31667406,58.50066027,11.60714286,66.67015695,305.2630171,855.5484476,2.80266,117.3565391
9_24_11_1,85.31539789,47.5452533,5.154639175,66.51140107,37.20578301,137.9654679,3.708172674,118.735287
9_97_21_0,85.3124161,25.20892755,6.748466258,33.29092428,104.9673077,155.8315257,1.484571998,118.8091582
10_106_47_0,85.29928033,24.88765259,6.586826347,55.52014477,126.4874229,367.0584747,2.901936542,118.922629
9_39_21_3,85.25778065,31.04423431,15.23178808,51.85896322,148.7855095,291.4029758,1.95854406,119.0781847
9_99_21_4,85.19549624,17.88396658,2.958579882,46.86237462,11.94579679,126.614793,10.59910822,118.6581839
9_73_21_1,85.18783582,21.25987532,2.614379085,30.31430909,43.62236968,346.4662659,7.942399014,118.8555634
9_73_21_4,85.18382428,20.17688472,4.166666667,32.44327819,25.0003095,89.59687819,3.58383076,118.3524498
9_79_11_0,85.15616017,58.6337307,43.75,67.98218692,725.2658007,508.4972555,0.70111848,118.4709029
9_73_21_5,85.07156068,21.15636692,0.689655172,28.65868136,40.68934609,106.026174,2.605747798,118.7247539
9_95_11_7,85.02928197,21.61539728,4.21686747,49.92964446,26.92302546,477.3407737,17.72983405,118.3844914
9_63_42_0,85.01735444,26.99257464,8.383233533,47.82179653,55.54084499,162.1683231,2.919802951,118.4607135
9_79_11_1,84.97500015,53.40559163,34.75609756,54.7667857,718.3684402,214.3390927,0.298369306,118.5111512
9_93_45_0,84.86468644,66.62947348,3.355704698,64.65390449,489.6226386,331.9642554,0.678000217,119.0666298
9_43_11_1,84.85603528,37.93481438,23.80952381,37.12768335,310.9014482,142.0756776,0.456979787,118.9485575
9_45_11_2,84.82786376,72.31374782,60,57.46925619,316.1025352,106.0063803,0.335354413,119.0260164
9_79_21_1,84.72107756,69.43088616,50.33112583,63.22252021,827.3171095,200.6183777,0.242492722,118.5246544
10_66_50_1,84.70790227,24.86881172,3.703703704,33.01373697,82.18405514,88.59356716,1.077989727,118.3751923
9_62_11_1,84.66707827,43.67788468,13.23529412,53.56659769,84.65577855,1130.96746,13.35960143,118.6697558
9_63_21_0,84.66380585,37.83497067,15.94202899,42.10364526,90.83578145,1021.845142,11.2493681,118.8276293
9_96_21_0,84.63821957,34.93132156,5.389221557,40.82400525,41.3706554,72.5264319,1.753088782,118.6076466
10_24_50_1,84.61705284,36.40951769,9.87654321,38.96345152,134.7707831,253.6362499,1.88198246,118.889209
9_93_42_0,84.61688225,26.75482961,3.048780488,46.3647786,66.01849898,257.9720039,3.907571481,119.0752292
9_39_45_1,84.61355615,28.97346784,11.80124224,34.45557213,131.544599,196.8949282,1.496792188,118.8517075
9_63_45_0,84.60826306,29.31706678,10.65088757,60.20483375,172.9912323,426.186314,2.463629563,118.7189168
9_93_21_0,84.59284728,63.08786875,16.89189189,66.93718398,375.1514879,403.1243621,1.07456421,118.5243358
10_29_50_0,84.53693497,44.00553294,24.6835443,49.74359748,336.2872858,562.2604776,1.67196472,119.0145104
10_106_47_2,84.52517451,30.95014767,14.79289941,52.32256613,204.1521309,544.1275423,2.665304251,118.7222032
9_87_45_3,84.50866211,18.89560755,1.183431953,41.06951548,41.36443138,105.2427265,2.544280749,118.6502215
9_11_21_2,84.48340893,63.70203263,39.07284768,55.796368,143.5939567,448.5248472,3.123563536,118.7208824
9_2_21_0,84.48191273,52.10241593,28.44036697,49.81789279,378.3454577,230.8628614,0.610190652,114.9462353
9_83_45_1,84.443682,35.2461033,21.55688623,47.40976588,205.0581955,304.4757009,1.484825809,118.8763146
9_82_11_1,84.44082564,23.6152712,1.19760479,38.53831569,64.75148163,325.8744912,5.032695515,118.6598601
10_96_50_0,84.4380303,22.62709839,2.994011976,38.5418875,49.81486404,182.4848318,3.663260662,118.7429689
9_8_42_0,84.41815144,81.75165875,41.17647059,70.45607054,208.9038657,129.1616831,0.618282877,118.8149785
9_24_21_3,84.41130876,20.54847513,3.821656051,35.62573772,34.1406778,74.0130507,2.167884631,118.8114911
9_23_11_0,84.3897932,39.19685528,21.81818182,55.41532518,195.8985259,625.9645081,3.195350783,118.6616617
10_70_47_0,84.38429584,19.19819012,1.183431953,32.51659215,23.35213966,118.8592666,5.089866212,118.9557209
9_99_21_0,84.34430517,19.41498757,3.067484663,44.27992765,18.23063677,116.046453,6.365463505,118.5374531
10_85_50_0,84.31679547,19.42400799,3.571428571,24.03620668,57.44346259,38.60992941,0.672137919,118.7874206
9_87_45_1,84.30800137,18.91993606,0.595238095,34.64548109,30.65249231,34.67317173,1.131169739,118.9520792
9_24_21_2,84.30033124,21.88014685,2.919708029,31.86790051,25.77681017,313.6301842,12.16714489,118.8816988
10_106_50_2,84.29278776,29.53095168,13.25301205,41.49713575,176.9848455,365.993724,2.067938207,118.9033326
9_49_21_5,84.28869034,36.37588823,21.42857143,43.80718017,266.393195,79.53462761,0.298561034,118.8133394
9_34_45_3,84.27703586,31.06177639,10.2739726,48.51586091,168.1362097,466.896893,2.776896743,118.7632429
9_43_21_5,84.25748553,39.76908026,23.35329341,36.29191542,225.3981577,112.5605985,0.499385619,118.9164678
9_36_21_3,84.2547938,26.2169924,9.580838323,47.21678857,90.81408649,432.5719484,4.763269281,118.4936966
9_43_21_4,84.25393768,36.28713484,21.21212121,31.11940063,251.2281343,67.32995641,0.26800325,118.7056586
9_38_21_0,84.17885808,44.04409814,31.67701863,51.5193029,422.982514,235.6053283,0.557009617,118.9921074
9_43_21_2,84.15646606,37.22795532,22.89156627,34.70376356,188.7974196,43.45077266,0.23014495,118.3844255
9_94_45_0,84.05654258,15.72306682,0.598802395,54.64608526,30.98830253,304.9408567,9.840515026,118.4150142
9_44_21_2,84.05238136,28.37208355,9.036144578,32.88205894,56.45776528,178.8177608,3.167283719,118.9481475
9_66_45_0,84.04884424,28.82871133,11.72839506,41.54658779,160.002898,712.6793289,4.45416513,118.8146625
10_5_47_2,83.99779106,29.6133074,11.51515152,41.3254444,128.6188039,367.305496,2.855768246,118.6689422
9_87_42_0,83.99629685,14.79874538,0.606060606,34.56695228,32.83139675,15.45283982,0.470672629,118.9187234
9_73_21_6,83.97955933,28.21194072,7.947019868,40.16477333,66.03226721,207.1785896,3.137535607,119.0668711
9_44_21_1,83.97922474,22.88763118,3.636363636,30.00456405,41.87894049,43.21029493,1.031790547,118.7475265
9_95_11_6,83.94838342,20.50475164,2.43902439,36.45376999,42.51160503,663.3054258,15.60292596,118.6561771
9_43_21_0,83.94635133,56.44376009,35.81081081,47.71310513,211.328914,170.6750465,0.807627519,118.69562
9_86_11_0,83.93696982,27.571457,5.161290323,38.50094112,146.3107173,308.5946105,2.109172972,118.5833142
9_66_45_1,83.90464117,30.65175693,14.37908497,35.84535693,153.6536046,183.3210079,1.193079775,118.8850921
10_24_47_0,83.9028116,26.04444086,8.275862069,55.10888932,39.01999736,483.9561907,12.40277354,118.5661724
10_49_50_1,83.84313787,41.35570072,27.86885246,42.87287501,218.9288535,272.5828149,1.245074875,116.9969797
9_45_45_1,83.77516151,94.04995592,65.89147287,70.3708434,545.7784885,187.4906279,0.343528798,118.5003171
9_44_11_1,83.75412401,22.58933026,1.212121212,35.05454694,32.83735126,49.92590776,1.520399967,118.5696542
9_86_11_1,83.70556106,59.70146904,8.609271523,66.65587493,182.0049736,230.4869632,1.266377279,118.7230942
10_5_47_1,83.6968079,32.1166717,15.06024096,47.15709985,152.914234,188.8493064,1.235001487,119.1217618
9_43_11_0,83.6707779,41.56731588,29.09090909,39.77864896,361.1652369,166.1352347,0.459997856,118.6373578
10_85_50_1,83.60426,17.53406153,1.818181818,19.41772564,68.41000991,20.76565335,0.303547001,118.8375334
9_95_11_3,83.59537984,21.99304845,3.614457831,47.21802577,34.19111835,271.9104424,7.952663016,118.7467389
9_79_21_0,83.58361703,62.70521126,48.71794872,66.23994447,846.856091,141.7294446,0.167359539,116.1195438
9_49_21_6,83.56696741,34.86195075,15.6626506,47.98746432,195.5730309,303.0606894,1.549603685,118.8133394
9_79_21_7,83.55893802,58.18299277,47.20496894,63.23892394,856.6016194,298.095117,0.347997377,118.9271834
10_96_47_0,83.52673417,26.0814252,1.807228916,44.54770216,112.2171438,120.2776172,1.071829251,119.0897674
10_96_50_3,83.44648562,22.99732736,0.602409639,42.26199002,79.29100664,204.6230255,2.580658693,118.7130212
10_29_50_1,83.42324771,37.63262637,22.42424242,40.80518921,233.5921105,130.4911603,0.558628286,118.6824611
9_86_21_3,83.42183972,51.69928255,14.96062992,60.38027358,157.1000282,908.191785,5.78097786,118.9657277
9_50_45_1,83.42174362,27.01704085,6.060606061,48.50075847,126.9839192,85.33209957,0.671991384,118.3017938
9_44_21_4,83.41001737,29.2182129,7.547169811,33.07629916,61.11754218,123.8691467,2.026736389,118.7475265
9_50_42_0,83.39220931,26.37833056,3.821656051,49.40308814,153.0885007,411.4350069,2.68756311,118.8660234
9_46_21_5,83.25348014,45.70695612,27.95031056,61.71501661,667.3236689,287.6184123,0.431002864,118.7723723
9_44_21_3,83.19810238,28.92887186,6.097560976,40.03539799,78.40022528,132.7916816,1.693766581,118.7776197
9_34_21_1,83.15508077,24.3052827,3.03030303,32.95913109,40.73654137,52.71785594,1.294117128,118.5490934
10_106_50_3,83.14793122,33.26131493,17.90123457,58.8279127,283.0522998,819.704474,2.895947055,118.773033
10_108_47_2,83.14380319,31.68519764,15.85365854,39.10662959,191.1658437,367.6622041,1.923263052,118.7601034
9_2_21_1,83.12302888,66.05394618,31.42857143,63.02236933,426.5852444,1073.159907,2.515698611,117.3989639
9_43_21_3,83.09358559,47.34024221,32.51533742,46.48201064,534.4129273,155.7507834,0.291442769,118.7458127
9_34_21_3,83.0866457,23.95677932,3.067484663,30.54536639,15.80374254,50.25466079,3.179921506,119.0204815
9_46_11_2,83.07670364,50.67008196,32.43243243,65.17671564,872.2756395,381.6301685,0.437510978,108.6168805
9_49_21_1,83.04973592,32.92519702,19.39393939,41.31841731,187.2859871,319.0125746,1.703344599,118.9843807
9_11_21_3,83.00751625,70.76573117,40.25974026,50.38041794,211.4574447,238.6096828,1.128405212,119.0512466
10_99_47_2,82.92386497,23.62173454,1.840490798,40.47635137,50.18194444,395.4172094,7.879670941,118.5483388
9_56_21_4,82.89057498,36.02946,21.42857143,38.67876747,31.53958187,272.2778167,8.632892401,118.8235893
9_44_21_5,82.87566771,53.33954477,12.8440367,44.60590422,60.1258109,241.1061989,4.010028227,118.9080233
9_94_42_0,82.8659916,17.53649591,0.606060606,46.76063361,8.894947186,163.4209083,18.37233037,118.8154345
9_73_21_3,82.84833254,32.73977544,8.666666667,57.91051808,126.9034535,848.5522203,6.686596756,119.1071202
9_99_45_0,82.82138314,22.02701059,3.048780488,44.62213634,40.01303688,374.9764481,9.371356871,118.7467745
9_11_21_4,82.81950868,57.72919976,29.74683544,40.48504662,107.5853177,58.3657895,0.542507014,118.911092
9_95_11_0,82.81630935,27.0299939,7.194244604,31.92296559,110.7657328,448.5391576,4.049439715,118.3945539
9_95_11_4,82.79737736,23.97484443,6.707317073,37.71599955,68.22153225,84.5083263,1.238733923,118.9379251
10_24_50_0,82.79181305,38.15224229,16.55629139,55.95477226,207.5347941,1526.765639,7.356673111,118.6984723
9_44_21_7,82.75304899,27.12786181,6.535947712,32.59142673,77.27193721,27.59899707,0.357167143,118.5067814
9_35_21_5,82.74288266,15.22686291,0.609756098,26.98084361,33.25317861,21.7338287,0.653586502,118.5707091
10_47_47_2,82.6870428,44.04358641,36.19631902,41.02577122,204.788847,53.18869697,0.259724578,119.0261592
9_34_21_4,82.68422991,28.05445972,4.848484848,45.45611629,114.2770317,417.8918066,3.656831127,119.0405405
9_31_21_2,82.58590771,24.68057377,8.588957055,37.76602112,53.14864248,218.203569,4.105534193,119.0833231
10_46_47_1,82.55122653,71.57083414,14.09395973,88.16190982,748.8732595,1471.163761,1.964502995,118.5764488
9_99_11_0,82.46660333,26.31424579,4.458598726,50.81405689,37.47926708,293.4806015,7.830478672,118.9605692
9_73_11_0,82.38037789,31.64552091,4.424778761,48.1129434,77.38961203,237.7231679,3.071771025,116.7047569
9_36_11_2,82.37651945,23.34473365,5.521472393,39.0351371,59.55454992,179.0100104,3.005815856,118.484783
9_79_21_4,82.37265875,66.11945151,46.09929078,86.69965556,1122.32646,827.687018,0.737474387,118.6051602
10_5_50_1,82.36555553,35.15132289,20.98765432,39.64803201,182.0600061,185.4130503,1.018417248,118.6039437
9_93_11_1,82.36394044,24.25079935,2.739726027,28.55792482,128.9413396,140.8948061,1.092704687,119.0556548
9_95_42_0,82.30853076,21.81590545,2.395209581,70.06180589,40.92733583,242.9961375,5.937257644,119.0469037
9_73_11_1,82.30344638,26.65130111,8.695652174,34.74452503,61.56629131,150.9347281,2.451580644,118.5156927
9_43_45_0,82.2581217,37.76808397,26.70807453,38.12738327,212.8773126,252.5661022,1.186439734,118.5538401
9_68_21_1,82.25582468,42.19345194,11.66666667,64.22991237,224.5354275,891.1907563,3.969042953,118.9049378
9_31_21_5,82.25401709,45.50444184,18.63354037,45.80030633,105.1095411,312.7091162,2.975078313,119.0532338
10_18_47_0,82.25043839,65.81362755,17.80821918,84.83219549,70.91445175,288.8066452,4.072606332,118.9713617
9_24_45_1,82.22045934,52.40394065,22.22222222,44.66796958,372.6875424,713.8961228,1.915535245,118.1819176
9_86_21_2,82.18599693,38.69955633,14.94252874,42.84918566,104.4067039,55.69122324,0.533406584,118.7760215
9_24_21_6,82.1788635,21.44644738,0.628930818,28.99131493,18.08838945,208.0398093,11.50128981,119.0522032
9_45_42_0,82.11712528,81.84172851,58.46153846,76.53562781,754.1251024,336.3701426,0.446040241,118.4663338
9_34_11_2,82.1019062,27.21071842,9.756097561,41.63347349,121.8103766,179.027268,1.469720995,118.9678473
9_11_21_1,82.10116952,70.91481838,44.18604651,49.97745773,363.4145601,345.0771625,0.949541379,118.6908492
9_11_21_6,82.0870279,37.40828857,13.33333333,37.6937878,211.8990189,480.8794286,2.269380157,118.1102091
10_70_47_2,82.06731826,19.55180787,1.257861635,23.35952346,44.83328872,32.02620299,0.714339811,118.6850937
9_46_21_4,82.06537351,44.27562212,31.61290323,54.93381697,259.8747112,381.8956192,1.469537446,118.8425865
9_31_21_0,82.03792317,59.74810764,32.89473684,47.80389388,148.7146439,572.6173757,3.850443781,118.7423113
9_34_21_6,82.00432709,27.2787021,10.55900621,41.53034918,122.6566812,254.9119062,2.078255368,118.5591229
9_35_21_1,81.94867355,20.79015501,3.225806452,24.13809384,62.57846849,85.4742103,1.365872518,118.901688
10_79_47_2,81.94323638,51.71340443,36.17021277,72.72069901,485.9088498,1308.186979,2.692247692,118.7695478
9_44_11_0,81.87767324,25.00844559,4.968944099,37.35815698,69.91821235,122.5584053,1.75288242,118.9307189
9_34_21_2,81.77891853,21.1813757,4.90797546,36.22334205,27.15871444,21.34277576,0.785853683,119.0806587
9_45_45_0,81.73166357,97.37410785,64.33566434,71.29614467,603.9167526,456.989431,0.756709313,118.2895161
10_47_50_2,81.71473201,39.16076299,29.375,37.58370585,208.7532403,166.8389351,0.799216026,118.5397063
9_2_21_2,81.69654108,59.32025535,28.23529412,53.19336999,196.5238656,142.6354258,0.72579188,118.8604449
9_63_21_1,81.68273545,54.22513418,17.8807947,56.69073652,380.3905203,1737.095028,4.56660967,118.6766924
9_56_21_5,81.68236217,99.01522654,8.333333333,102.3669395,75.57877775,313.2068238,4.14411073,110.9751348
9_35_21_8,81.66508357,19.48699797,0.625,26.65698598,81.88308266,42.6119514,0.520399941,118.6308871
9_68_11_1,81.66440396,25.05391755,3.086419753,34.6289863,55.54299202,160.4462745,2.888686198,118.8573337
9_46_42_0,81.64505382,48.94176858,37.10691824,66.89215916,518.4436769,157.2982238,0.303404653,118.9034074
9_31_21_7,81.63126101,43.04900451,22.98136646,56.91541998,85.43979123,196.1217909,2.295438554,118.9128172
10_106_50_1,81.59437715,32.41586404,13.04347826,40.21801251,188.2516781,138.7832182,0.737221679,118.4623188
9_73_21_0,81.52240553,42.50353546,13.88888889,56.91098677,63.86348245,229.48252,3.593329258,117.8493362
9_31_21_4,81.49794022,21.19541795,4.347826087,46.10297312,48.54859882,713.3972567,14.69449735,118.5517459
9_68_11_2,81.48351796,49.18926935,4.72972973,59.25081721,81.85315746,412.377853,5.038020106,117.7290677
9_99_42_0,81.44606141,28.78858052,7.920792079,49.56436547,37.50504537,273.2931654,7.286837348,118.2534636
9_99_21_1,81.44547366,22.94832957,1.351351351,46.36788813,22.1610024,198.9874016,8.979169716,118.3664179
10_99_47_1,81.43705504,23.90280131,2.580645161,44.0026991,92.949952,238.1395708,2.562019298,118.8978622
10_5_50_3,81.41297688,31.95772983,13.66459627,47.93485363,136.9918187,104.5293535,0.763033548,118.4127606
10_70_50_0,81.34414153,20.18520447,1.851851852,31.38758595,36.91760805,80.78438244,2.188234469,118.2741901
10_5_50_2,81.30924267,34.05714377,17.00680272,46.87738041,126.1811206,61.75714511,0.48943253,118.3825738
10_47_50_0,81.27561008,40.13275017,27.84810127,45.97580925,232.2123971,416.1820159,1.792247189,118.268057
10_5_50_0,81.262688,33.05086405,15.52795031,48.57884537,186.3458278,231.3265615,1.241383101,118.7548777
9_68_21_5,81.247247,35.11724946,6.993006993,56.32751564,69.45525289,956.2939792,13.76849035,118.4256837
9_35_21_3,81.21038781,29.67930287,4.605263158,37.08978901,52.64672802,233.9624884,4.44400815,118.5707091
9_86_21_4,81.20667188,30.93029442,6.140350877,29.58140869,91.58013624,110.0810505,1.202018855,113.3344502
9_36_21_2,81.20645315,27.21417057,11.65644172,48.84128794,109.5945252,268.4523881,2.449505461,118.7745349
10_109_47_0,81.19927166,39.95470258,12.37113402,53.68578715,123.1993568,398.066504,3.231076154,118.6372407
9_94_45_1,81.19405012,20.01863806,1.863354037,21.42274953,31.17833888,15.38107524,0.49332568,119.084082
10_72_47_0,81.14214084,46.65545627,13.75,65.42554527,74.07076528,540.0974848,7.291641753,118.7816086
9_11_21_8,81.1109131,69.70289863,38.05309735,49.70815525,190.2784271,631.8594086,3.320709647,118.8109817
9_65_45_1,81.09880469,26.05444707,3.947368421,43.9526287,47.15458319,82.77160171,1.755324639,112.422949
10_47_47_0,81.07996418,52.76704102,44.58598726,49.06463829,345.4201478,602.0907291,1.743067777,119.0664013
10_106_50_0,81.02993221,32.79579679,16.875,55.8215808,404.96926,429.6472613,1.060937962,118.6427335
9_35_21_7,80.9532184,20.88844956,2.5,28.91923281,88.01590383,104.8750617,1.191546722,118.901688
9_38_11_0,80.90567184,81.4765479,42.38410596,86.41367011,812.4527089,1028.21708,1.265571606,119.0542587
10_70_47_1,80.8931477,38.12457654,11.03896104,36.70665192,84.87412715,355.9959802,4.194399308,118.915628
9_34_21_5,80.88777072,28.22428278,8.695652174,39.24790865,138.701008,182.320496,1.314485732,118.9903929
9_31_21_3,80.86932279,26.02186012,3.75,38.98467528,70.04761437,307.3866867,4.388253469,118.4715078
9_46_21_0,80.84093282,44.07499122,27.27272727,63.6743087,333.0847058,133.5913763,0.401073283,118.6820969
9_15_11_2,80.83867128,29.50604626,11.94968553,31.67462334,121.7308943,93.4517747,0.767691516,118.333785
9_34_11_1,80.83712839,27.95656895,3.125,37.3589287,109.8826147,255.9177114,2.329010028,118.5164896
10_99_47_0,80.72152428,31.75796222,6.289308176,61.61846299,89.69401846,1022.631465,11.40133403,118.7181073
9_79_21_9,80.70144206,65.28351491,53.94736842,60.01280455,724.9025551,134.8329715,0.186001512,118.9271834
9_2_21_2,80.6945961,40.64550931,26.28205128,50.18554948,293.5670169,161.0848649,0.548715815,118.5498793
9_34_21_9,80.65358415,27.46125152,6.918238994,34.05125098,177.6617965,88.84484265,0.500078489,118.5691524
9_35_21_2,80.64745749,21.18749994,4.081632653,34.58157608,71.61966132,102.0586411,1.425008709,119.0120144
9_34_21_8,80.61876637,25.80291365,9.375,32.5403519,54.11365998,138.7654898,2.564333846,118.9803633
10_47_50_1,80.59461922,43.76806635,35.22012579,38.39607471,259.0511901,139.4921501,0.538473303,118.6906226
9_99_45_3,80.58483464,66.54512062,5.031446541,72.57809409,827.8076846,957.6271941,1.156823272,118.615974
10_5_47_0,80.57619556,33.47819709,16.875,53.54701007,225.0211984,96.54048324,0.429028393,118.5280649
9_95_11_5,80.57297242,24.4532797,6.289308176,41.79617303,58.81727707,256.8100882,4.366235586,118.8775505
9_11_21_7,80.53636041,66.1131299,36.49635036,45.66171669,172.0507191,289.5360231,1.682852734,118.4205513
10_35_47_2,80.5261649,30.11770911,6.918238994,46.02067112,57.00440083,78.33175778,1.374135271,118.5332638
9_36_11_3,80.52288082,94.54184743,11.46496815,108.9021679,107.8552139,166.1369222,1.540369874,118.5750533
9_21_21_6,80.49719809,38.31864504,26.89655172,48.01081226,89.02228624,191.6152116,2.152440919,112.7097242
9_68_11_0,80.46638125,25.2669901,2.564102564,38.21222862,80.92472321,135.2564209,1.671385648,118.4579475
9_83_45_0,80.46068015,40.45445601,28.93081761,62.87466123,389.8685873,212.0216129,0.543828407,118.7455044
10_35_47_1,80.35363204,24.98198503,3.846153846,34.95232735,105.8820634,164.72378,1.555728843,118.964951
9_36_11_0,80.34495652,30.87341923,13.92405063,66.2023233,103.2735867,492.3912682,4.76783352,118.6653236
9_68_21_0,80.32802577,31.63508308,9.090909091,50.62814499,119.4589155,403.8118259,3.380340631,118.8250621
9_93_11_0,80.3220144,32.23944791,2.816901408,39.79087982,117.1679066,70.15250306,0.5987348,111.0067655
9_82_21_1,80.18953097,31.29922963,9.210526316,32.1802653,115.6640509,70.24834965,0.60734817,118.9225915
9_35_21_6,80.12824581,20.38987245,1.898734177,27.54372713,62.81514854,223.480826,3.557753681,118.721154
9_81_21_2,80.07511666,36.62336082,17.19745223,47.82775346,330.1943537,206.8205926,0.626360173,118.4778788
9_21_21_5,79.89434441,49.27738626,29.77099237,43.81498643,180.2739949,393.2868515,2.181606125,118.7468498
9_95_45_0,79.88187672,25.94356047,8.805031447,61.61493881,78.48227507,388.3668304,4.948465498,118.6125858
10_108_47_1,79.84759884,32.70192514,17.08860759,37.33172921,123.1422285,128.7656104,1.045665748,118.830263
10_5_50_4,79.83718003,38.14524306,23.27044025,51.23799197,253.667282,464.6978467,1.831918736,118.6643173
10_70_50_2,79.81453937,21.72107847,1.898734177,29.94015997,37.24710984,74.31638224,1.99522547,118.6550731
9_31_21_6,79.80534496,35.02878233,12.10191083,46.82149845,141.8855719,325.7614106,2.295944586,118.4915674
10_95_47_0,79.80015039,34.70993435,13.15789474,65.7750457,128.9867451,332.9915187,2.581594865,118.4752381
10_14_47_0,79.79494473,43.32843707,31.94444444,65.93118535,277.5178549,476.7512099,1.717911844,118.580029
9_34_21_7,79.77445929,25.9608054,7.5,49.75444759,48.56124905,150.9129978,3.10768361,118.5490934
9_80_45_1,79.75755057,45.10892566,30.96774194,60.90562189,71.35789789,619.6170644,8.683230346,118.725637
9_93_45_1,79.7182939,32.65023902,8.275862069,57.53938515,154.0201557,992.7699349,6.445714397,118.5673149
10_47_47_1,79.68351146,59.32408741,50.32679739,57.72248086,365.7491718,419.5992143,1.147232165,118.3822851
9_35_21_4,79.64187781,19.99451937,3.870967742,42.18148318,47.79222448,179.5795433,3.757505436,118.5305904
9_46_21_3,79.59809464,52.84103668,39.21568627,65.81241478,379.0387135,447.8476107,1.181535275,119.1535352
9_46_11_0,79.5916927,61.62249112,40.52287582,88.66022862,666.3698665,1821.056166,2.732800893,118.4063417
9_6_11_1,79.56630047,28.26511497,9.433962264,42.90336716,179.3733525,193.4027691,1.078213494,118.7606866
9_46_21_2,79.55990684,83.13476863,39.21568627,73.71803642,948.0634383,378.3180216,0.39904294,118.4614236
9_34_21_0,79.45216759,20.13927276,3.205128205,34.18921543,54.49632556,55.03760097,1.009932329,118.7195954
9_81_21_3,79.44876711,34.92067777,20,45.98131899,468.7857035,189.4468276,0.404122451,118.6086824
9_95_11_2,79.4416626,21.97490721,3.205128205,39.2225444,76.43143638,43.88666615,0.574196538,118.6964268
10_99_50_0,79.4256008,32.12500572,4.375,59.80338331,89.16215559,110.6551167,1.24105475,118.8582885
9_6_11_2,79.38534393,26.81338687,9.032258065,37.00968258,131.5790569,258.9903642,1.96832513,118.9311757
10_35_47_0,79.36027033,71.6807941,11.03896104,68.14414763,626.6624621,334.1832265,0.533274684,118.6336562
9_99_21_3,79.35742158,21.11937571,3.225806452,27.18434767,32.78851983,93.84973756,2.862274298,118.7286101
10_21_47_0,79.31147093,38.08598118,24.83660131,76.60428714,125.2768785,355.0732146,2.834307646,118.5096411
9_63_11_1,79.11823636,43.35260765,29.11392405,47.13800199,177.6706475,188.2401579,1.059489345,118.9237157
9_81_21_0,79.11346128,32.14536195,16,59.26099916,218.5312434,649.2495887,2.970969179,118.467817
9_43_42_0,79.06101216,51.53955829,39.74358974,47.53561538,421.8779922,156.4614126,0.370868866,118.410544
9_31_21_8,79.0589045,68.58822775,50.32679739,52.12409988,180.5814985,267.2021708,1.479676341,118.8426089
9_2_21_4,79.04611634,46.57052268,34.22818792,76.4883389,350.6278678,372.1196734,1.061295201,118.9102437
9_60_21_2,79.03864925,22.24033717,1.307189542,46.5877126,30.40810048,124.5576816,4.09620067,118.3571445
10_70_50_1,79.03142674,32.70565131,7.843137255,35.13443178,67.57287623,48.24041899,0.713902111,118.4947013
9_81_21_1,79.01442103,36.3779215,17.14285714,47.97154642,213.5690703,880.5825696,4.123174616,119.071526
10_12_47_2,78.96147237,32.04737069,15.58441558,44.53113235,288.3600197,161.9407927,0.56159239,118.2657025
9_97_45_1,78.93299546,27.79240836,8.333333333,30.20141452,86.97068573,55.02570221,0.632692519,118.4783596
9_99_21_2,78.92916298,26.10503266,5.732484076,30.84318001,49.85683641,88.15278653,1.768118334,118.929828
9_2_21_3,78.90921751,44.58720212,33.33333333,41.40698765,388.0380942,237.0346758,0.610854139,118.7000312
10_49_50_0,78.85503955,44.70406115,30.15873016,57.77159813,200.6574287,248.9569086,1.240706164,117.3291002
9_83_42_0,78.84857292,38.76436456,25.80645161,57.33774954,283.120888,216.9855035,0.766405846,118.9308236
10_47_50_3,78.82643811,51.59995644,47.74193548,45.17375293,478.4066101,112.5536591,0.235267776,118.4189733
9_6_11_3,78.81398887,32.52220251,12.41830065,47.84401849,152.3683678,38.91138041,0.255377025,118.6804565
9_2_21_5,78.79379367,78.87714603,39.58333333,74.97562178,895.0009871,206.2425531,0.230438353,116.6980067
10_70_50_3,78.76434806,25.13140249,5.095541401,33.3339544,55.34385156,80.22322009,1.449541689,118.7653287
10_50_47_1,78.69542522,97.00056279,4.098360656,111.7121334,381.5583563,914.0307217,2.395520126,118.9497308
10_109_47_2,78.63594483,44.63874641,18.11023622,90.23472876,124.7584832,316.4926674,2.536842861,118.8669063
9_36_11_1,78.5918451,74.21186361,14.18439716,78.89256865,107.5663993,697.9799644,6.488828938,118.6151735
9_60_21_3,78.57436923,22.17107998,1.910828025,42.03095335,51.85810492,92.66635245,1.786921304,118.6467216
9_21_21_2,78.49225568,49.81384599,34.72222222,62.33794626,252.5790478,241.8886975,0.957675229,118.4660533
10_35_50_2,78.44558096,29.9146521,11.03896104,47.62497285,129.4091717,109.909136,0.849314887,118.5695529
9_60_21_1,78.38466652,51.80494096,2.521008403,49.45749063,539.818545,831.3041628,1.539969626,117.6781362
10_99_50_2,78.31629785,28.88346367,3.333333333,32.85013572,78.01606645,154.6790186,1.982655954,118.6685626
10_113_50_2,78.29524038,69.46113954,25.61983471,63.71585321,162.1909131,399.5192409,2.463265255,119.0652514
10_99_50_1,78.28346962,27.07360289,3.973509934,34.01658817,66.61499153,193.5698054,2.905799445,118.588678
9_99_11_1,78.0471744,28.23491083,2.614379085,41.15616603,32.81364137,55.17163399,1.681362741,118.3669737
9_68_21_4,78.02842512,32.7543637,10.88435374,44.84125733,157.7854716,347.6633871,2.203392896,118.2259945
10_99_50_3,77.94353958,31.16351301,8.219178082,41.63479091,108.8713152,603.3609975,5.541964808,118.1992406
9_82_21_3,77.89756602,30.21228301,5.6,33.2691962,100.0754585,139.4561923,1.393510402,118.7328426
9_11_21_9,77.8361737,79.38181471,43.44827586,56.78562421,298.4391756,543.6854226,1.821762915,118.7809486
9_21_21_8,77.79971702,52.22707118,39.69465649,48.69682334,255.6057246,168.9783008,0.661089657,118.8270774
9_34_11_0,77.78128657,26.6233564,7.792207792,32.76757472,141.8926315,150.308319,1.05931025,118.9377568
10_97_47_2,77.76257132,38.20302533,29.13907285,50.97805163,255.1877624,19.84208554,0.077754847,118.5739733
9_97_45_0,77.74029986,70.26023354,13.7254902,52.56044338,142.9654808,215.0500253,1.504209437,118.5186104
9_35_21_0,77.66396514,35.33013052,14.08450704,51.61075958,203.1253478,193.1099505,0.950693513,118.6710057
10_46_47_0,77.65334522,42.86977166,18.32061069,66.86632554,190.872144,302.1301903,1.58289305,117.7876698
9_69_11_2,77.64652963,24.73801906,4.285714286,44.10261368,49.91176463,424.5259897,8.505529565,118.3352289
10_108_47_0,77.63985032,32.96776835,18.70967742,63.19473965,221.0830609,307.301407,1.389981691,118.2790093
10_14_50_0,77.59762611,56.8419702,41.78082192,76.42747931,284.3131967,104.0204011,0.36586554,118.4488956
9_34_45_0,77.47677468,40.35418539,18.95424837,53.62682291,157.0519476,65.79744603,0.418953391,119.0640617
9_81_11_1,77.45300451,29.89349681,12.5,43.21867504,144.7441448,186.8287124,1.290751434,118.3222735
9_80_45_0,77.43926421,47.75111319,37.33333333,61.6451893,203.6187653,557.1056373,2.73602306,118.3231431
9_21_21_3,77.43473128,51.39726059,36.98630137,56.80903941,359.6075272,400.1099503,1.11262952,118.7167644
9_6_11_0,77.40990805,28.48203949,13.15789474,37.71952387,107.1581301,87.3907695,0.81553093,118.5099674
9_36_45_1,77.39039792,28.14367285,11.76470588,26.64886735,93.04654033,97.93622004,1.052550903,118.8970711
10_72_47_1,77.36955026,105.3752795,13.10344828,120.5708203,151.6837502,304.9364039,2.010343254,115.1995457
9_82_21_8,77.34737687,28.75671209,6.622516556,39.87984304,157.6660941,124.0646013,0.786881935,118.6928955
9_38_11_1,77.30695315,64.83121778,45.92592593,67.93380793,893.9520709,195.9138079,0.219154711,118.9036715
9_24_42_0,77.2895441,34.50581629,9.848484848,58.51401062,135.8997614,329.0979648,2.42162283,118.7175165
10_94_50_2,77.26201041,34.66892954,8.441558442,46.1846793,126.5216128,176.0354691,1.391347021,118.5593186
9_80_42_0,77.2455889,45.68740258,38.62068966,79.96291883,69.46966603,713.4515065,10.26997173,118.9019182
9_11_21_0,77.22743941,74.49156192,44.85294118,61.13930028,157.4631821,258.9564019,1.644552069,118.7509155
9_24_45_0,77.2025347,72.50701143,28.7037037,65.29718435,99.49582356,370.9730417,3.72852878,118.6732977
9_43_45_1,77.11748337,55.02492258,40.78947368,58.43631493,541.976855,642.4376433,1.185359923,118.7345318
10_79_50_0,77.1131561,53.79045444,49.00662252,63.47773855,342.9040403,548.2965732,1.598979623,118.258146
9_15_21_3,77.09147748,41.03944716,28,56.83111107,268.0701008,177.5991604,0.662510142,118.5808966
9_68_21_3,77.04283518,36.24847435,12.03007519,45.55004837,130.2215833,871.8884723,6.695422144,118.8849689
9_69_11_0,77.02445281,43.11800535,12.94964029,55.08590607,146.1150373,534.8937869,3.660771655,118.4950199
9_58_11_2,77.01447188,29.77256998,4.72972973,38.65965613,117.2332783,97.56129981,0.832198001,114.4739895
9_82_21_0,76.96754989,29.1105488,3.311258278,35.02706783,73.91890232,119.9539265,1.622777432,118.622988
9_21_21_0,76.96030238,49.72713412,24.42748092,52.02618239,387.4208398,690.3554274,1.781926413,116.5706766
10_97_50_2,76.94812704,41.13833209,30.46357616,43.13459019,265.094148,328.6028925,1.239570526,118.5562985
9_64_42_0,76.94002429,87.54191823,39.83050847,111.5808272,710.7469679,962.3385307,1.353981901,118.2013218
9_82_21_5,76.86147163,26.1587473,1.324503311,39.60540284,76.8796503,203.5512816,2.647661387,118.3433582
9_81_11_0,76.82644709,45.68031351,19.8630137,55.4398887,403.1433344,404.3768025,1.003059627,118.8152411
10_109_47_1,76.82079764,68.66047053,23.2,75.50410874,570.684085,807.7609834,1.41542581,118.4575025
9_4_45_3,76.81171871,50.75907055,24.41860465,70.97048867,274.3789577,485.4782048,1.769371124,116.3691864
10_50_47_0,76.79764189,25.29718207,3.424657534,50.249191,111.4877051,473.5779455,4.247804233,118.8898166
10_94_50_3,76.74508941,29.84969499,6.578947368,34.83329372,147.4479244,67.53383295,0.4580182,118.6891427
9_34_45_1,76.71505033,29.78549473,12.41830065,56.28372175,135.3779279,203.8559777,1.505828762,118.6028063
10_35_50_1,76.69650914,38.68784494,18.66666667,49.19534312,254.6672425,334.2609613,1.312540074,119.0615427
9_31_21_9,76.69484429,21.62571923,1.986754967,26.07842095,55.75503938,102.6996771,1.841980172,118.6520435
9_15_11_1,76.69309839,40.92838826,30.26315789,57.68864228,312.0889803,85.522807,0.274033408,118.5444147
9_35_11_1,76.68569377,18.9771073,2.068965517,29.5693808,69.70568894,184.6362755,2.6487978,118.9839151
9_58_11_0,76.67612585,28.96930819,6.081081081,60.99926068,143.6737654,482.5682619,3.358777857,118.5391595
9_21_21_1,76.52878317,50.47022449,32.8125,53.91714202,350.055812,447.1657156,1.27741263,118.997561
9_35_11_2,76.52421833,30.16066224,4.109589041,57.69439048,110.2990687,36.65199569,0.332296511,118.6729641
9_46_11_1,76.51362805,61.37720125,39.04109589,82.42239532,645.7504791,2360.766598,3.65584955,119.0883944
9_33_21_0,76.50193317,22.6647082,5.369127517,42.58346407,122.1769031,241.764275,1.978805068,118.4807799
9_64_45_1,76.48420065,50.74584538,40.78947368,66.58660691,631.1114561,409.6598197,0.649108514,118.3411025
9_36_42_0,76.4744799,50.08078153,19.04761905,66.23271218,107.3731449,694.2534909,6.465801959,118.6465158
9_58_21_3,76.46729011,33.55743849,5.921052632,51.17173301,166.8425953,784.5623884,4.702410599,118.9398127
9_69_11_1,76.45977662,35.53121558,15.43624161,42.45458545,351.9009032,264.0298608,0.750296059,118.8345758
10_23_47_2,76.45235793,51.86021306,35.33333333,57.82228262,354.2809402,205.200814,0.579203651,118.3140044
10_97_50_3,76.45180098,43.0428209,33.11258278,35.93306556,254.2305108,74.28783271,0.292206598,118.4159834
10_97_47_1,76.38370188,42.18111603,34.66666667,32.37458936,209.1457612,46.40551606,0.221881217,118.6040402
9_82_21_6,76.34489961,31.90139272,3.289473684,43.40706073,140.6354965,151.2657297,1.075587128,118.7927633
10_12_47_0,76.18802585,34.5286407,15.03759398,52.98009969,184.9909248,202.59983,1.095187941,118.918106
9_90_11_1,76.07511144,19.514276,0.689655172,29.20305689,34.41693753,223.0090314,6.479630305,118.6635366
9_82_21_7,76.03136466,27.555796,3.333333333,38.44317369,107.485145,131.3592917,1.222115779,118.6429616
9_82_21_4,76.01146854,29.64878933,3.448275862,38.63836062,80.9455534,184.8567927,2.283717696,118.6030145
9_97_42_0,76.00589977,34.0535341,19.04761905,58.11587925,231.733332,358.5085893,1.547073898,118.415252
10_23_47_1,75.91523128,47.78588257,38.41059603,56.10097897,286.6132917,382.0934286,1.333132272,119.0183144
10_97_47_0,75.88733339,42.19480507,34.22818792,44.44095623,303.9119057,175.5721083,0.57770724,118.5839956
9_21_21_4,75.85035314,65.11623096,42.37288136,63.13210283,261.4593217,408.2375096,1.561380588,118.907305
10_23_50_0,75.81992393,54.27883228,38.0952381,69.86858414,293.7909839,813.4320531,2.7687441,118.3990948
9_35_11_0,75.75378104,28.47365285,7.971014493,33.12642824,83.4892657,273.7324651,3.2786546,118.4823812
10_12_50_1,75.73148578,39.30300434,23.48993289,47.84427432,276.2012459,287.244835,1.03998385,118.6497251
10_21_47_1,75.70700711,45.33802954,33.08823529,59.57474371,150.5168018,361.4483472,2.401382057,118.238888
10_16_47_0,75.66019474,24.98783182,5.737704918,48.57964187,79.38448208,82.56673414,1.040086576,118.9002197
10_23_47_0,75.63573468,50.21766675,45.52238806,53.76984846,346.4993758,492.5353034,1.421460868,118.3140044
9_49_45_1,75.63226891,41.66198066,29.45205479,61.19303467,226.1724942,242.8294466,1.073647118,118.3194947
9_82_45_2,75.59726462,37.15464804,14.28571429,70.71580646,176.2006051,1106.959411,6.282381439,118.5655319
10_97_50_0,75.54567116,42.62348701,33.11258278,52.26054545,312.9370193,470.1496716,1.502377931,118.6164336
10_35_50_0,75.50583124,35.61232927,20,58.90933951,305.3907936,170.7898022,0.559250003,118.900893
10_23_50_3,75.50418598,53.26695242,36.98630137,68.74569005,450.1851905,838.2229748,1.861951465,118.5198486
10_23_50_2,75.49609234,58.93609007,44.96124031,66.66607634,196.3764497,245.6404755,1.250865243,118.4896602
9_82_45_0,75.49201712,37.75039548,10.6870229,73.46972466,163.8446618,289.3560162,1.766038716,118.4956465
9_70_21_4,75.47953692,65.5758548,30.08130081,48.99506636,344.0251683,854.1474378,2.482805087,118.9256858
9_54_21_0,75.32699699,42.61321543,13.17829457,45.62043957,108.875115,229.0629761,2.10390571,118.3218102
10_31_50_3,75.30909051,27.71157082,10.06711409,56.82471803,148.3212706,924.1937067,6.23102609,118.890946
9_82_21_2,75.30045645,36.10006174,10,49.62592499,106.3045752,87.39431587,0.822112461,102.1148386
9_6_21_4,75.28324078,32.61035979,17.56756757,60.08891809,117.4159702,236.7272879,2.016142161,118.7155511
9_6_21_5,75.25089913,31.6373277,14.86486486,31.62990317,149.9970108,57.4249074,0.382840345,118.7656928
9_38_42_0,75.23259026,52.05424504,43.16546763,71.70986156,694.354858,583.8834955,0.840900714,118.8531993
9_36_45_0,75.22185788,35.60328202,22.22222222,54.28079358,144.6706087,137.8365629,0.95276134,118.3053937
10_103_50_0,75.21703998,31.02083079,6.164383562,43.73112604,255.6623305,271.1362829,1.06052496,118.5890377
9_70_21_3,75.21208831,51.20964238,31.40495868,46.18286593,227.9903408,576.2065731,2.527328882,118.5533827
9_58_21_5,75.13718153,26.32329101,2.666666667,47.16682333,104.9167542,170.359652,1.623760222,118.6002415
9_6_21_1,75.13399627,36.8415123,18.24817518,42.72214994,202.9275128,371.7307152,1.831839903,118.5851826
10_73_47_1,75.13329855,50.39588881,26.44628099,68.53182491,158.3681861,200.5339799,1.266251669,118.3893069
9_82_42_0,75.11630384,32.93752943,11.71875,72.61755473,71.48773839,146.1674649,2.044650847,118.4145684
10_57_47_2,75.09462063,26.92946427,3.378378378,39.47748972,96.02224407,218.6497666,2.277074116,118.4405744
9_67_21_1,75.00978289,41.12982773,15.27777778,40.65951021,246.4173032,127.3399315,0.516765381,118.349941
9_58_21_1,75.00451674,53.39151114,6.428571429,62.1326596,195.3899243,1081.265607,5.533886208,118.6501784
10_54_47_0,74.98368955,37.37012483,19.28571429,58.27286193,163.6441732,365.5087541,2.233558012,117.2357373
9_21_42_0,74.97363957,74.20997651,39.51612903,73.63875476,272.9121193,518.3501216,1.899329803,118.3770329
9_11_11_2,74.92166484,55.14253948,36.64122137,55.43309307,191.1539323,450.4621463,2.356541353,118.5838571
10_2_47_2,74.90778282,117.5896789,62.12121212,109.9374343,432.553071,442.974886,1.024093725,119.0214241
9_58_21_0,74.88668384,60.34263239,6.956521739,71.16590096,139.2064401,302.0327826,2.169675357,118.8299514
9_73_45_0,74.8807672,49.77512044,31.00775194,67.90881553,83.81766936,210.1542778,2.507278947,117.3089604
9_98_21_0,74.8327788,63.67017756,20.51282051,56.02507829,215.1723397,911.2107941,4.234795213,117.9918124
9_33_21_2,74.79161579,20.83790738,3.448275862,34.70427028,16.72302677,214.5825534,12.83156191,118.7014145
10_97_50_1,74.72177136,43.6949386,33.33333333,41.14404601,266.0729657,57.3917779,0.215699396,118.8168839
10_21_47_2,74.71646788,49.93547697,38.34586466,62.6014184,303.9239642,410.7900721,1.351621196,109.2438679
9_67_21_0,74.71423148,33.64397623,8.965517241,51.02851779,166.5182974,153.7795995,0.923499711,118.2600702
9_21_45_1,74.69149279,58.62290494,40.16393443,67.58828529,283.0851865,478.5741139,1.690565726,118.8021413
10_94_50_4,74.69042597,28.32936434,4.054054054,43.65127616,116.3239685,74.84746504,0.643439748,118.9787502
9_49_45_0,74.61453366,38.18095467,26.35135135,50.97237164,189.8911261,155.2172464,0.817401264,118.933279
9_15_21_0,74.60078847,42.92121788,31.72413793,46.79132914,299.7174655,206.3641059,0.688528797,118.8216293
10_67_50_2,74.59622457,43.50132821,22.2972973,51.70885179,307.1182089,288.5986526,0.939698931,118.4963803
9_15_21_1,74.58800429,55.51909558,44.05594406,46.63296848,229.2290889,49.69678404,0.21679964,118.3501945
9_11_11_0,74.57996473,70.65437185,44.85294118,67.47114665,249.5334432,430.9523892,1.727032592,118.3135748
10_46_50_0,74.54772091,59.23618523,35.13513514,58.44479754,431.7235499,161.1552779,0.3732835,118.6607312
9_67_21_2,74.51854029,56.52546052,17.98561151,58.91714388,243.6214319,241.2605978,0.990309416,118.8292523
9_16_21_6,74.50022584,33.76477591,21.08843537,35.9541189,170.4901731,146.1612045,0.857299877,118.3173375
10_2_47_0,74.45602887,94.46220193,43.90243902,111.3755606,1098.332177,1670.142087,1.520616551,118.1884046
10_67_50_0,74.43114438,40.99279836,26.71232877,60.46748735,352.9474337,98.09984045,0.27794462,118.5165054
9_58_21_2,74.40000989,37.58195099,6.25,43.80553355,159.367935,229.3000829,1.4388094,118.7400649
9_30_45_1,74.39720009,50.9040957,28.82882883,52.72797254,216.100724,744.7620274,3.446365257,118.748671
10_36_47_0,74.38419247,31.09155062,12,70.66721715,82.21276808,71.04210513,0.864124962,118.355149
10_36_50_1,74.36165661,41.08598194,22.2972973,56.47610532,179.570252,116.281761,0.647555816,118.5416504
9_49_42_0,74.34116008,74.7766083,30.34482759,76.65958624,369.1291831,727.7949057,1.971653662,118.6970474
9_6_21_3,74.24857516,35.35410793,16.32653061,38.3053674,228.0294426,77.66477688,0.340591004,118.685466
10_57_47_1,74.16752655,31.56129175,7.534246575,37.67537164,80.61021091,153.2998553,1.901742392,118.6103602
9_6_21_0,74.15762414,36.9201863,25.67567568,50.93411297,208.9485247,121.465575,0.581318175,118.7957778
9_84_45_1,74.15493749,28.13415712,2.068965517,64.08437624,122.3376678,56.92537818,0.46531358,118.4109032
10_103_47_1,74.14172725,33.11522441,10.34482759,53.33429431,142.47934,682.6142038,4.79096972,118.7043765
10_67_50_1,74.12663123,36.40501403,21.23287671,42.72562197,214.7746266,433.5746502,2.018742423,118.9391317
9_33_21_1,74.10321534,23.54153515,3.401360544,31.13398692,32.54688953,244.2802226,7.505485966,118.3102895
10_12_50_0,74.07393663,35.75202881,22.75862069,60.05384071,279.8433245,305.3340737,1.091089359,118.9809246
9_5_45_1,74.0596516,60.44635268,51.47058824,70.15577787,203.3047839,143.1554992,0.704142305,118.2265441
9_58_21_4,73.97464077,28.87140301,5.594405594,52.96141723,111.4713832,459.8470163,4.125247244,118.4304559
10_15_47_0,73.96108923,69.5172608,42.10526316,64.77279767,251.4882065,672.7610024,2.675119488,116.6465957
9_98_45_3,73.90765914,29.14016622,5.555555556,55.29475714,86.27566385,637.7495104,7.391997718,118.8847872
10_50_47_2,73.86098779,54.89544042,7.857142857,56.5826623,198.5795103,498.7797935,2.511738461,118.1109315
9_58_21_6,73.85108188,26.20037674,2.777777778,44.96684049,70.41987242,328.1000037,4.659196224,116.9922719
10_16_47_1,73.79707482,42.90588511,11,60.99229062,45.5979295,225.9079952,4.954347658,118.8500296
9_37_21_5,73.796158,57.66262048,44.44444444,58.67759063,245.8469525,235.2805536,0.95702042,118.1788852
9_6_21_2,73.76278307,37.34539554,22.22222222,43.6764982,148.1275858,194.2671486,1.311485282,118.2743039
10_17_47_0,73.74230402,35.74520277,9.027777778,68.29315106,87.01196306,390.0561421,4.48278752,118.7227112
9_4_21_1,73.72605133,81.62887175,42.85714286,72.64793354,509.5936668,523.0216315,1.026350337,118.7216534
9_15_21_4,73.70019334,42.3774239,32.19178082,45.12680514,186.9403409,66.44632236,0.355441324,119.0122093
9_92_21_7,73.65774274,39.18625035,22.75862069,44.6043523,205.1032547,322.9773473,1.574706105,118.1435954
9_73_42_0,73.65495868,45.41473635,31.38686131,65.23987123,173.1688588,246.6658068,1.424423585,117.280741
9_11_11_1,73.59848473,64.06468138,35.71428571,57.36117416,212.7091482,342.4793721,1.610082947,117.6628952
9_92_45_1,73.58913791,45.38604986,25.34246575,81.31191346,551.6473438,635.8098008,1.152565689,118.7416551
10_22_50_0,73.5804207,55.24981295,44.35483871,100.5120472,369.4143925,381.6634882,1.033158144,118.9087813
10_73_47_2,73.55830048,54.52918818,35.8490566,59.3733021,358.3258235,916.4517984,2.557593504,107.8462888
10_38_47_2,73.55807146,46.71166499,30.34482759,64.02133945,226.8876032,92.35181389,0.407037725,118.9541303
9_2_42_0,73.55569269,64.01698207,43.65079365,82.29028475,532.1590198,788.4564029,1.481618038,117.4148139
9_70_21_0,73.55137381,29.53748504,12.76595745,29.2780446,267.142856,818.36623,3.063403013,118.6137562
10_67_50_3,73.50829017,43.29753742,26.8115942,47.64737798,285.601926,438.3671581,1.534888662,118.2045669
9_15_11_0,73.47616466,44.8630927,32.65306122,52.82126692,199.5779494,169.5586403,0.849586043,118.7550444
9_81_45_0,73.46579143,43.96052531,28.76712329,63.80122855,436.2487149,341.3285096,0.782417227,118.2751345
10_28_50_0,73.41890555,59.38499646,39.28571429,94.42750177,724.8381927,871.2929606,1.202051671,118.8708626
9_69_21_2,73.38046083,38.28890798,17.09401709,51.77648208,146.1410872,1078.753972,7.381592631,118.2869279
9_102_21_0,73.33085153,47.0124865,23.25581395,47.65685517,105.5485005,91.75099295,0.869278034,118.3915198
9_54_21_2,73.29664814,33.871647,18.75,38.21527788,67.21091785,228.2842899,3.396535818,118.6840198
10_79_50_1,73.26868501,76.85648787,57.97101449,77.51437453,559.4179859,940.2545139,1.680772763,118.8293929
9_79_42_0,73.26465192,73.29102562,52.30769231,88.22998511,1008.405642,1410.465912,1.398708866,118.2795151
9_70_11_0,73.23550909,31.57080038,16.88311688,48.00726961,166.0519347,330.8482982,1.992438683,118.2619643
10_46_50_1,73.23299608,60.80975538,31.62393162,57.56328829,346.0311587,338.2608601,0.977544512,118.3911839
9_69_21_1,73.22442316,39.8755222,21.42857143,45.81846823,201.3504962,530.5468159,2.634941686,118.5265975
10_98_47_1,73.2192956,33.52743099,9.848484848,56.03124796,169.9509195,298.5676215,1.756787327,115.2968203
10_98_50_0,73.19800961,31.35623754,9.230769231,62.85095343,136.7758273,356.1657315,2.604010799,118.8524238
10_53_50_3,73.12548049,57.14035722,50.72463768,49.58578035,429.1843053,298.9741237,0.696610104,118.8070061
9_16_21_5,73.08566729,34.1927796,21.67832168,32.35414369,232.1119868,94.59904022,0.407557755,118.2873026
10_17_47_2,73.07231596,32.33020964,13.69863014,67.39079427,116.5389578,126.1606464,1.082561993,118.4920259
9_15_21_2,73.03166302,55.95385342,50.69444444,57.1910625,492.6074643,110.6667921,0.224655126,118.4504998
9_98_21_2,72.99110891,45.13584975,5.511811024,53.67894636,126.6336731,221.2741357,1.747356214,110.4145397
10_98_47_0,72.97372118,62.48005294,12.59259259,62.91336206,623.6617637,1815.909119,2.911689035,118.4922978
9_33_21_3,72.96027465,25.10365304,4.895104895,27.15383522,33.50783263,258.666787,7.71959171,118.2701742
9_54_21_1,72.92741804,34.88367052,17.93103448,38.61710179,193.992989,112.1231927,0.577975489,118.4827922
9_22_11_1,72.76029106,71.21121354,48.12030075,78.38779816,1100.617783,991.0887989,0.900484086,118.3370919
9_21_21_7,72.68922923,82.96096308,47.05882353,65.98847007,282.5474298,904.4136423,3.200926807,118.7167644
9_33_21_4,72.62896006,25.75364859,7.692307692,29.01473817,33.42008332,136.2307752,4.07631465,118.6011261
10_23_50_1,72.59245257,58.34552412,45.80152672,73.53685098,348.2482044,2238.570856,6.428090161,118.7311678
10_36_47_1,72.53072681,28.42819688,8.633093525,61.36325464,113.8296561,303.6069194,2.667204047,118.516108
9_67_11_1,72.41389767,52.42442894,27.96610169,59.99065799,311.9155132,757.9345572,2.429935432,118.6775047
10_57_47_0,72.38035723,37.47971705,8.275862069,70.62094751,193.4754128,257.7205854,1.332058589,118.1509398
9_98_21_4,72.3671665,26.60461287,2.777777778,48.69391087,57.05521455,260.6647988,4.568641111,118.6507057
10_93_47_1,72.34351623,53.52351435,19.81132075,73.12716242,412.197424,706.1629168,1.713166739,118.5471754
9_67_11_2,72.32864525,69.9547582,30.15873016,55.530935,541.1395309,518.0737703,0.957375576,118.2481649
9_92_21_8,72.26941536,50.11499262,44.75524476,53.84055429,322.9656966,143.4476851,0.444157651,118.4857197
9_92_11_0,72.25090689,52.93310901,45.38461538,45.99240473,396.4448116,166.4794942,0.419931071,118.5461675
9_11_45_0,72.22263066,34.85748898,18.11023622,57.06413427,86.75017405,408.6936165,4.711156155,118.6310019
9_13_21_5,72.21475386,86.94480428,25.38461538,63.04789286,269.4789202,604.1706411,2.241995925,118.9624407
9_48_21_3,72.21269149,62.0934791,26.2295082,59.94524625,188.2833832,721.8628104,3.833916717,118.2845539
9_92_11_1,72.20231314,52.73302581,45.39007092,50.72190748,435.9918864,92.09820107,0.211238337,118.3751197
9_22_21_5,72.19368771,60.44996702,41.00719424,75.06391164,711.6362568,554.5490434,0.77925912,118.6791176
9_19_21_0,72.18880485,54.72329923,46.04316547,50.3768534,288.4384312,279.0874961,0.967580828,118.2541604
9_15_45_1,72.1840788,48.85421007,43.26241135,52.95910944,329.5337736,68.76128825,0.20866234,118.6483007
10_113_50_0,72.16717048,84.84949437,31.48148148,67.45364312,429.8698917,1758.3337,4.090385799,118.7646827
9_54_11_1,72.14705004,37.82698138,25.89928058,37.33084951,146.3375107,140.4968134,0.96008749,118.4948181
10_103_47_0,72.14569482,35.85711011,15.27777778,58.68451832,201.1065761,507.1514042,2.52180418,118.8242294
9_102_21_1,72.14160921,46.25037975,36.2745098,46.13678393,141.1673267,637.9647329,4.519209562,105.9446126
9_70_11_1,72.01969865,32.69767003,10.48951049,41.70038441,116.4759321,29.54317232,0.253641862,118.5235835
10_67_50_4,71.99767715,40.64677859,26.76056338,53.54596536,292.8797466,209.1645824,0.714165403,118.2951296
9_22_21_2,71.96410592,63.70117801,42.7480916,89.356353,374.7410402,855.9313197,2.284060799,118.548998
10_53_47_0,71.95662327,53.98285145,41.17647059,80.03757534,385.9520055,313.0873946,0.811208104,118.6644185
10_25_47_0,71.92514421,57.3464863,16.05839416,73.86118985,550.1860539,1105.124455,2.00863771,118.6507306
9_67_21_4,71.90710644,42.22031164,18.84057971,38.09149779,411.8390744,44.65630632,0.108431446,118.6794675
10_73_47_0,71.89143863,67.52811003,33.33333333,69.54341336,340.1407171,911.947789,2.681089747,118.249532
9_54_11_0,71.85307347,43.00687974,20.3125,53.05704937,180.0829476,650.5696725,3.612611195,118.1225725
9_73_45_1,71.84611255,50.80517576,35.33834586,65.69220971,181.6521545,543.4071756,2.991471129,118.6773469
9_92_21_3,71.84028768,45.61806603,39.16083916,52.34690393,218.288162,203.2658998,0.931181508,118.7272193
9_56_45_1,71.83939741,55.27003603,30.3030303,69.8998083,27.92923097,400.7718433,14.34954811,104.4676266
9_92_21_5,71.81505159,45.15106521,37.32394366,49.44708338,306.8667827,501.3148313,1.63365623,118.4454698
9_22_11_0,71.80614025,88.72485509,60.8,90.93521185,922.172834,1016.805733,1.102619482,118.0567909
9_69_21_3,71.78531001,48.50410831,30.10752688,42.96794549,181.0536137,316.124261,1.746025692,118.8861019
9_102_11_1,71.75883466,48.24791223,41.48148148,59.64898948,242.7512207,185.6738471,0.76487297,118.1872328
9_67_21_6,71.74839442,42.75326778,17.6056338,54.13505962,385.056996,308.8256372,0.802025779,118.4897402
10_103_50_1,71.74823002,30.72060882,7.042253521,54.34050326,185.1338686,178.5892574,0.964649304,118.5890377
10_10_47_0,71.70762635,38.96906774,23.52941176,66.06205583,217.5781623,161.1240413,0.740534067,118.7034272
9_69_21_4,71.70309724,52.1404362,28.82882883,47.43046261,159.8931559,112.3563592,0.702696488,118.7462946
10_17_47_1,71.67578971,31.70441548,13.49206349,39.95400515,99.84762749,214.7032535,2.150309015,118.9533966
9_67_21_3,71.63303403,48.28223865,21.21212121,42.32784219,340.4357672,861.459711,2.53046182,118.2201276
10_38_47_1,71.63185751,41.52183959,20.58823529,49.94982232,324.2985565,176.8005968,0.545178488,118.9440987
9_67_21_5,71.5668446,48.70486022,22.46376812,43.33182072,759.2388521,286.8120337,0.377762588,118.7493671
9_98_45_2,71.55186777,30.39975251,5.755395683,54.48196353,150.4472317,757.2613085,5.033401413,118.3357349
9_82_42_1,71.54483709,71.00321356,12.90322581,77.35202909,189.6190007,437.2023963,2.305688748,118.3846153
9_4_45_2,71.53888456,71.30631007,66.66666667,73.56480389,127.6848387,633.0887877,4.958214257,115.8887769
9_67_11_0,71.52795302,45.65315016,24.21875,46.68545858,376.6856212,242.3115782,0.643272704,118.9071516
9_69_21_0,71.52519391,36.58020307,15.57377049,50.14870242,188.0520786,169.4846451,0.901264407,118.6564185
10_14_50_1,71.49872717,67.5096317,53.07692308,76.77813462,562.4863348,278.664736,0.495416011,118.3585379
9_31_45_0,71.47549896,32.982975,15,58.43663454,67.26945194,627.9761537,9.335235171,119.0032024
10_82_47_0,71.43306638,65.32074849,22.68041237,74.59440288,184.4139222,1265.005778,6.8596002,118.7064817
9_31_42_0,71.42101401,28.85745105,9.285714286,43.14038032,112.2972622,87.72126557,0.781152308,118.6191655
9_21_45_0,71.37408355,92.62720902,57.93650794,78.47763281,769.8953835,1806.382143,2.346269612,118.4511897
10_68_47_1,71.36772557,36.11849043,11.62790698,74.67586353,165.0912609,147.1681992,0.89143543,118.1547726
9_19_11_0,71.31793276,63.41219364,49.6,57.20212791,294.4494597,1747.14842,5.933610549,118.7181505
9_22_21_3,71.30084758,70.38024745,48.09160305,79.63609452,611.0287066,553.8662182,0.906448768,116.9775531
10_22_50_1,71.28919277,59.22001115,43.7037037,75.51764136,250.90711,1598.262116,6.369935534,118.6979679
10_95_50_1,71.22256282,31.23321482,14.78873239,54.08270971,130.7603729,194.3833483,1.486561593,118.814484
9_92_21_6,71.21028367,41.23006776,29.57746479,44.78508191,391.5632336,193.0550682,0.49303676,118.4354073
9_54_45_3,71.19018148,33.51279845,19.14893617,49.13486988,144.4543133,172.65072,1.195192556,118.444592
9_6_42_0,71.17456024,37.72867501,26.8907563,66.22753552,168.0286167,279.5321638,1.663598554,118.0709013
9_92_21_1,71.16388115,45.61534967,37.85714286,44.01730106,241.9631489,77.88667287,0.321894773,118.3850949
10_35_50_3,71.13967958,46.01185123,28.24427481,60.65682229,436.4451463,212.3738269,0.486599127,118.8908524
9_48_45_1,71.12596838,64.26912898,32.33082707,70.48344078,408.0247567,277.4728718,0.680039305,118.8334784
9_6_45_0,71.12117833,39.34106866,29.49640288,60.09951802,196.1857615,84.75810746,0.432029862,118.342046
9_16_21_1,71.08471956,39.07197114,12.82051282,42.64433338,105.0712653,35.35912376,0.336525154,102.5290111
10_53_50_1,71.0368658,58.79360311,54.09836066,67.76993149,381.1409242,730.1650589,1.915735133,118.5755705
10_53_50_2,70.98774211,63.76889368,54.41176471,44.17638036,407.9151842,111.6000118,0.273586314,118.8371934
9_43_11_1,70.98328758,91.82799633,60.9375,84.00403677,831.3863041,754.7805674,0.907857832,118.8381752
9_22_21_0,70.95982747,105.2791785,54.16666667,92.11587554,761.6845532,1677.147739,2.201892807,118.1586391
9_98_42_0,70.93024082,32.03896594,4.964539007,48.7448265,63.93112863,449.7038386,7.034192078,118.2804934
10_10_47_1,70.91046287,49.44812436,33.05785124,67.55739896,322.4100184,279.6190452,0.867277781,118.5128598
9_69_42_0,70.85320499,50.48847914,16.32653061,94.31433117,15.01346,83.35914648,5.552294174,100.491325
9_5_45_0,70.84914435,120.107065,58.33333333,87.61046365,531.35412,439.3566236,0.826862176,118.9289595
10_38_47_0,70.83243531,61.74467675,24.03846154,67.42338581,277.8097013,257.5245669,0.926981908,118.9039725
9_22_21_6,70.83003727,68.64728302,44.6969697,75.29653819,569.1198674,980.0322813,1.722013828,118.4589151
9_22_21_4,70.82857504,76.83804346,60.15037594,78.29242888,884.6192141,514.9101812,0.582069859,118.6090532
10_17_50_1,70.82820411,39.77015459,13.4751773,62.20196493,152.5808829,181.288964,1.188149922,118.3493825
9_92_21_4,70.7922161,50.56697139,42.75362319,44.64217948,388.5663052,101.3488327,0.260827641,118.32472
10_109_50_0,70.77639199,61.80916782,35.55555556,65.14221257,307.8941794,363.0390165,1.179103214,118.141215
9_19_11_1,70.74437586,46.20855508,37.87878788,49.26716187,284.8295311,210.8085332,0.740121758,118.5779637
9_15_42_0,70.73333349,38.40122866,26.42857143,45.76137881,119.5768242,93.1250189,0.778788193,118.4696565
10_10_47_2,70.70945387,41.93636006,31.65467626,40.52330362,272.4424516,49.88682567,0.18310959,118.8739349
9_37_21_1,70.69707241,74.91136548,52.71317829,73.18837801,515.8916129,278.2366664,0.539331634,118.5904834
9_40_45_1,70.65783557,56.83518158,37.85714286,89.45469766,315.63366,164.8061568,0.522143794,118.4473305
9_54_11_2,70.501324,44.61016366,21.77419355,54.17221091,232.8068112,923.314291,3.966010644,118.3640291
10_4_47_2,70.47484368,54.52321909,36.22047244,93.03522276,419.419183,572.9336229,1.366016735,118.9228361
9_16_21_3,70.45719758,33.18322199,13.57142857,45.9138605,122.3411548,153.1027206,1.251440865,118.7878837
9_16_21_4,70.41665168,30.41657647,10.07194245,43.27244905,177.0810511,180.6843487,1.020348296,118.5275816
10_69_47_2,70.37586238,48.43435204,24.6031746,70.15277893,114.5051778,337.1313305,2.944245292,118.6674454
9_54_42_0,70.32051821,35.74953255,19.14893617,60.11871389,87.18569062,319.5146994,3.664760778,118.8282826
9_43_11_0,70.31775604,89.4552154,66.66666667,73.17318639,642.3162422,886.6992017,1.380471399,118.1857697
9_102_21_4,70.28231697,51.92022428,47.32142857,43.63726694,172.6401961,224.057188,1.297827465,118.3009602
9_16_21_2,70.26291951,56.3777341,27.27272727,56.90172439,239.9663606,407.256224,1.697138812,118.1571516
9_48_21_1,70.25598842,50.13533529,27.20588235,44.73899879,451.3811146,190.4068014,0.421831564,118.5342047
9_4_21_4,70.20808908,68.97259707,59.5959596,65.72170439,478.617625,325.4193133,0.679915023,118.3312534
9_54_45_1,70.17150652,41.4273094,24.16666667,77.61394315,88.80380141,557.0749571,6.273098092,118.494904
9_81_42_0,70.14948176,48.9291689,38.84892086,62.15978613,497.6852411,636.9114837,1.279747582,118.3669352
9_22_21_1,70.14843164,84.48860071,49.59349593,81.70948586,381.8538812,1037.885918,2.718018512,118.8993201
10_93_50_0,70.12732773,57.05823646,24.52830189,84.54329791,147.1188751,950.2125133,6.458807633,118.5951274
9_4_21_2,70.11412395,67.36887125,44.71544715,76.11786454,535.4254307,840.7651914,1.570275043,115.3582069
9_54_45_2,70.11257101,36.80257291,22.46376812,56.54839522,106.9854329,107.7170096,1.006838096,118.5351537
9_37_21_4,70.07949324,72.34117154,52.84552846,74.45103186,429.0884739,223.5746044,0.521045467,118.269236
10_28_50_1,70.05381426,69.06120713,59.52380952,76.97037906,604.4349621,244.8108365,0.405024282,118.7704734
10_73_50_3,70.01067283,56.73204318,27.10280374,64.26517222,113.9518123,366.9080595,3.219852778,118.2810432
9_37_21_2,69.93066031,64.09423224,50.81967213,71.5796933,326.2230727,371.4646812,1.138683043,118.6908732
10_17_50_3,69.9193896,34.08113952,15.10791367,44.02792366,93.94317699,78.36647593,0.834190182,118.2189976
9_92_45_0,69.90884617,46.00971228,29.9270073,75.16589177,218.5981409,1009.363755,4.617439798,118.5907379
10_98_50_1,69.87168067,38.15294244,7.142857143,69.7849946,113.2775988,528.8894407,4.66896762,118.5428863
10_98_50_3,69.87168067,35.30806667,10.07751938,62.78339407,167.0151943,568.377066,3.403145854,118.7725432
9_48_21_2,69.84518381,44.39186052,22.30769231,39.17382319,247.0531096,106.7281118,0.43200473,118.9835762
9_79_45_0,69.78877372,84.08441156,50,94.66941038,693.750692,1981.232677,2.855828037,118.5077332
9_15_45_0,69.78329146,54.54528872,47.82608696,53.97484186,330.6012719,126.8362326,0.38365319,118.1969376
9_13_21_6,69.74191942,68.23709596,35.24590164,71.04437327,420.5386802,868.9894093,2.066372132,118.0114619
10_53_50_0,69.72198971,65.62091671,52.84552846,58.18099854,444.833275,143.4946013,0.322580637,118.0523246
9_48_45_0,69.72089118,59.58731433,37.87878788,60.48762044,447.9851686,682.6711078,1.523869886,118.7036603
9_32_11_0,69.70430488,27.12401268,11.36363636,35.2644131,101.9787143,117.8223491,1.155362174,118.793476
9_30_45_0,69.70359527,42.66618654,28.45528455,74.21009104,119.9115746,1264.238731,10.54309173,118.0780573
9_54_21_3,69.69372493,50.92731245,35.76642336,39.72082397,262.4971666,107.0115187,0.407667329,118.7544494
10_68_50_3,69.69128455,37.55109232,14.40677966,48.39250407,189.4374668,407.8159429,2.152773418,118.3732065
10_11_47_2,69.65618324,43.66965348,25.75757576,51.36369201,116.8730091,437.5136053,3.743495687,118.911708
9_19_21_3,69.60759056,72.12654395,43.90243902,80.4759217,197.9666799,846.3397425,4.275162583,118.6547164
9_34_42_0,69.602199,36.65876876,21.3740458,64.97527819,145.9648388,183.5561247,1.257536583,118.0777982
9_98_45_1,69.59106299,49.18394889,12.09677419,67.23301243,113.385454,618.85126,5.457942248,118.4155971
9_58_45_0,69.58844374,37.38277696,13.07692308,71.11097747,126.6857722,302.4029018,2.387031286,118.1781839
10_95_50_0,69.56476553,39.14204534,23.68421053,77.92608379,179.6173485,231.3290292,1.287899143,118.3435943
9_31_45_1,69.55254232,52.80403161,29.71014493,52.07462991,126.6872487,121.9078479,0.962274019,118.8728154
9_75_21_3,69.53160934,60.8366787,55,46.22352198,50.81161035,116.3229422,2.289298478,107.9142038
9_51_21_4,69.52749032,35.29160041,26.08695652,42.77970499,540.9479971,1809.34878,3.34477397,108.3068906
9_37_21_0,69.51919786,55.74789854,43.90243902,69.24298345,445.1025667,186.3108457,0.418579581,118.0182615
10_36_50_0,69.51172973,38.81280542,25.92592593,50.1001653,148.2758552,280.3447864,1.890697484,118.8837329
10_16_50_2,69.50239785,31.84,17.07317073,29.95864514,115.1488901,91.21482958,0.792146841,106.0830055
10_11_47_0,69.49109133,37.11089078,19.67213115,52.06304532,111.5913755,171.149085,1.533712478,118.500457
9_92_21_2,69.3751089,49.74691442,42.64705882,51.48061431,353.8871886,129.0142079,0.364563093,118.1134079
9_54_21_4,69.34183268,57.23705758,46.37681159,57.5623465,300.6554646,225.8321852,0.751132814,118.7443881
9_54_45_0,69.3323875,39.21136156,23.7037037,44.3371623,128.8567126,70.02103887,0.543402338,118.4747792
10_54_50_1,69.32175461,50.28160102,26.05042017,108.9399658,264.0508972,1544.112713,5.847784383,118.7244546
10_33_47_2,69.29123202,50.47137723,21.73913043,76.02520694,137.8990298,310.6651353,2.252844967,118.6911986
10_17_50_4,69.24411391,36.21262667,22.46376812,63.88343198,164.1487391,215.7481854,1.314345676,118.5098562
9_48_21_0,69.24337291,66.76766118,38.4,62.01343611,441.9979646,195.4344317,0.442161384,118.5142326
9_101_21_5,69.21004847,40.51920611,9.022556391,71.78968086,93.14421999,320.7090001,3.443144407,118.1217228
9_37_21_3,69.20185793,82.5091878,55.83333333,79.54323413,637.395879,617.1431468,0.968225819,118.5603665
10_75_47_0,69.18423146,87.88066069,48.8372093,79.60404081,44.36841102,1014.886764,22.87408409,117.3426352
9_48_21_4,69.17128175,49.53498821,32.11678832,39.783765,344.9338298,110.3565873,0.319935529,118.4143723
10_68_50_2,69.16821986,37.25606875,20.68965517,64.34484051,98.42856271,87.92975789,0.893335791,118.6926215
10_28_50_2,69.12231672,73.89082257,55.2,76.62351964,765.1802259,1215.002037,1.587863873,118.1480603
10_68_47_0,69.09114289,41.87101096,19.14893617,49.07904816,141.7709149,616.4713198,4.348362429,103.6112646
10_36_47_2,69.07972554,34.85980878,21.53846154,64.81508685,124.1735271,331.9586066,2.673344425,117.8219724
10_15_47_2,69.05229605,96.02654966,46.05263158,74.79706184,374.6266885,195.7511793,0.522523316,118.6893199
10_93_47_0,69.0383177,51.5664299,25,68.29593164,243.9426382,213.9810898,0.877177895,118.3374634
10_58_47_0,69.00187972,41.13962125,16.92307692,79.97419713,257.9724527,1266.086019,4.907834172,118.2807665
10_98_50_2,68.95866635,28.22783655,4.032258065,47.64099477,93.77886843,390.4839063,4.163879484,118.0835726
9_13_11_2,68.94872037,100.4545198,40.25974026,96.34957781,92.84395031,227.9786389,2.455503435,116.8540132
10_10_50_0,68.93040864,46.82211928,30.43478261,68.78232489,277.5093763,74.15488824,0.267215794,118.4705939
10_58_50_3,68.89654571,31.97278019,7.913669065,65.16781183,164.9864036,1243.51905,7.53710017,118.1398191
9_30_11_0,68.82524629,36.55914022,24.06015038,64.60719951,195.5267849,247.8150471,1.267422503,118.4546656
10_53_47_2,68.73984852,59.8513658,50.39370079,52.59207586,417.1629102,86.35656883,0.20700922,114.106594
10_53_47_1,68.6972705,57.94535587,49.61832061,48.18386519,351.7840589,155.2384211,0.441288959,118.1613473
10_25_50_0,68.68573476,51.59856649,30.4,82.25219662,306.0607249,263.332212,0.860392042,117.6831178
9_30_11_1,68.54801379,30.21307596,14.17910448,47.78997503,147.1611202,179.1006691,1.217037957,118.1542734
9_16_11_1,68.53749958,38.14085157,22.79411765,37.81494076,147.7817288,74.60061781,0.504802714,118.34243
9_101_21_3,68.53734455,31.37813697,10.37037037,59.38793666,120.671254,117.5562385,0.974185936,118.9165794
10_73_50_2,68.50166454,50.75536802,26.95652174,53.87709067,136.4728834,306.3312822,2.244631127,118.9698264
10_17_50_0,68.46859343,32.56171734,18.24817518,57.92806689,189.3213099,143.6306129,0.75866057,118.9411294
9_4_21_6,68.46447504,76.48190454,56.25,83.16516011,643.8826953,1392.169177,2.162147215,118.471397
10_10_50_1,68.4349118,48.21993631,35.29411765,49.92549209,329.5498696,249.4911865,0.757066561,118.6310824
10_82_47_2,68.29871364,55.73156417,35.55555556,89.43016375,320.6114238,1745.551166,5.444444698,108.3142987
10_82_50_0,68.27543526,56.08376705,14.43298969,82.18653284,270.6802467,2050.913488,7.576886431,118.6368581
9_92_42_0,68.25880011,64.27920076,38.84297521,79.17080185,262.2639831,366.2998095,1.396683621,117.9659017
10_31_47_2,68.21366082,36.79254433,19.23076923,67.10839409,191.3476655,224.6470781,1.174025706,118.8383216
10_58_50_2,68.19716656,31.05600787,7.462686567,58.1444205,109.3300096,1244.283371,11.38098657,118.3993574
10_17_50_2,68.16221167,37.96167262,25.18518519,41.66615406,161.2106808,173.1858347,1.074282633,118.1788791
9_37_11_0,68.15954225,56.32516265,46.15384615,69.86194492,305.5793968,502.2157995,1.64348711,118.6050783
9_4_21_7,68.11894462,78.36775808,58.67768595,86.89448331,951.3340457,1364.527382,1.434330442,117.5804841
9_19_21_1,68.11163067,59.34476568,51.12781955,63.09746921,245.3035838,243.2427489,0.991598839,118.1339936
9_32_11_1,68.08468118,43.1596531,10.37037037,54.63001197,106.289488,174.0822911,1.637812867,118.4527489
10_52_47_1,68.06745133,36.1347408,22.3880597,48.79172081,260.5887054,119.786396,0.459676086,118.8178852
9_4_21_3,68.06462818,92.78436492,41.73913043,82.07635061,439.5159054,1437.145885,3.269838173,113.3861862
10_10_50_3,67.9714622,43.20767295,30.37037037,63.67867632,312.4812027,347.972933,1.113580369,118.4505328
9_57_11_3,67.93231427,60.79186779,16.15384615,80.1911158,234.320129,408.9595719,1.745302777,118.1722026
9_92_21_0,67.89365399,47.56677169,33.83458647,59.50457449,185.8482062,614.1945705,3.304818395,118.8580316
10_4_47_1,67.89038516,56.36858985,40.94488189,72.56354083,589.7596296,344.6356507,0.584366297,118.0596946
10_69_47_0,67.85130658,51.58136144,26.19047619,69.54690539,108.2413212,261.4055559,2.415025547,118.1163426
9_19_21_2,67.84207537,72.11431955,58.91472868,54.63561087,292.8628966,378.1947554,1.291371354,118.6046469
10_37_50_2,67.77910165,64.54544944,36.60714286,103.0287798,609.3907144,660.4666385,1.08381474,117.8143345
10_10_50_2,67.73646483,45.38599869,37.59398496,59.58365647,285.3656538,312.5060245,1.095107348,118.2699833
10_64_47_1,67.72098649,54.88285193,38.67924528,60.06147241,273.8028108,761.9905386,2.782990198,118.2014208
10_28_50_3,67.65218233,72.39168824,58.62068966,80.84861133,479.4539791,640.8351782,1.336593721,118.2384106
9_75_21_1,67.63022044,45.40978777,36.36363636,35.38302157,30.50082061,269.2848748,8.828774748,115.7229899
10_37_50_3,67.59985544,78.41617486,51.63934426,79.10386693,819.6345217,996.5305444,1.21582305,118.7195928
10_11_47_1,67.55051808,35.71059141,12.5,54.11528019,49.78783266,626.1918281,12.57720601,118.5506096
10_64_47_2,67.53871234,51.13111862,37.12121212,73.76581191,318.965647,938.6855606,2.942904885,118.402649
9_4_21_5,67.49752706,75.04797005,49.58677686,77.68312766,924.432173,1698.029353,1.836834981,118.080997
9_13_11_1,67.49168652,43.74449432,25,74.58011074,387.9442646,804.8189878,2.07457375,118.6958102
10_68_50_0,67.46344294,37.79361131,18.75,47.72369561,159.790541,175.4146343,1.097778587,118.1336452
9_101_11_1,67.41492516,86.11656277,32.95454545,72.67054885,532.6812273,1261.108849,2.367473799,118.0698304
9_4_21_8,67.36592206,73.03519983,50.89285714,70.14983677,793.8759313,1498.756357,1.887897464,118.5714996
9_13_21_1,67.34634349,65.35421107,29.35779817,70.95576431,217.1925832,320.5826632,1.476029515,118.211668
10_11_50_2,67.21318482,38.39032074,22.72727273,56.40721403,95.9986586,344.309976,3.586612366,118.7796936
10_80_47_1,67.19993266,71.65696773,55.66037736,83.61000971,222.1010643,1784.861791,8.036259513,118.8401605
9_101_11_0,67.18954791,85.62180479,37.96296296,73.13910298,646.804196,1928.906016,2.982210115,118.3716192
10_25_47_2,67.16242821,56.86651783,17.85714286,80.91205168,304.1090391,375.2932776,1.234074721,118.3696866
9_55_21_0,67.10936308,55.33572768,28.125,49.73193512,292.8509151,453.1922083,1.547518498,118.6197083
9_43_21_0,67.05024344,93.24219513,64.42307692,74.82689921,686.7980282,506.1078302,0.736909265,118.5592296
9_101_21_6,67.00382075,28.16711703,9.302325581,58.72063784,93.19090829,211.2133043,2.266458265,118.1116613
10_48_47_2,66.98751016,74.80291277,45.94594595,74.61305047,557.2923697,424.5040964,0.761726016,118.8077573
9_37_11_2,66.98175146,73.69873615,56.88073394,65.5776165,310.3596085,174.5198574,0.562314981,118.5247634
10_52_47_0,66.98100995,37.31012315,25.19083969,48.62908861,242.1874042,58.51818806,0.241623582,118.546198
10_93_50_2,66.96038122,49.36329669,28.44827586,66.33655643,226.2664287,815.0305943,3.60208361,118.4253491
9_33_45_1,66.86362266,42.16856872,22.65625,69.56656648,111.4931865,621.3523062,5.573006975,118.1740367
9_7_21_1,66.83092145,40.68218716,29.45736434,36.57399179,124.0734791,56.64646411,0.456555781,118.5637266
10_73_50_1,66.81609459,55.0814652,32.57575758,52.77946378,303.8673832,280.9207786,0.924484806,118.2710608
10_38_50_0,66.74214232,63.4500226,27.41935484,61.14864172,207.7569814,525.9774093,2.531695472,118.600276
10_114_47_2,66.72996098,65.17783742,44.16666667,83.34955123,236.8998038,375.6115131,1.585529017,117.0302772
9_16_11_0,66.72982977,41.70727777,26.51515152,38.36395375,157.279623,74.6450714,0.474601032,118.1622284
9_11_45_2,66.70753028,37.11405315,25.95419847,41.48535165,48.38320017,309.2748867,6.392195753,118.4008447
9_7_21_3,66.70066885,46.974153,40.83333333,36.34223523,212.0697443,83.09782958,0.391841985,118.7041217
9_17_21_2,66.66179691,45.81514041,30.47619048,65.87280635,139.4453332,46.27336282,0.331838734,118.4638714
10_43_47_1,66.59279027,90.69590574,47.42268041,102.1225993,368.0782518,541.3341851,1.470704076,118.608987
9_19_21_5,66.57965124,76.86085118,52,76.92365688,347.4081076,312.6130927,0.899843975,117.8135487
10_31_47_0,66.52990623,43.14461695,26.4,57.83955754,232.7979444,106.0165461,0.455401556,118.5364461
9_101_21_7,66.49763892,29.60723326,14.39393939,38.89920586,75.50041322,348.0338384,4.609694485,118.7656572
9_48_42_0,66.41086114,58.64434156,35.80246914,64.8786735,317.3223564,604.2288992,1.904148532,118.1345353
9_6_45_1,66.40262674,46.25253818,35.60606061,45.55591265,377.9043401,148.3993476,0.392690244,118.8032621
9_100_11_0,66.39635952,53.87387749,49.21875,46.4384205,317.1062302,215.2959481,0.678939508,118.5908393
9_40_21_0,66.38501651,48.7552666,23.93162393,50.92620544,122.6737642,292.0319613,2.380557597,118.5924092
9_28_11_0,66.38272919,74.81381725,58.55855856,72.71246731,412.458159,509.5552194,1.235410691,118.0906364
9_28_11_1,66.25161347,64.20605992,52.10084034,73.82300214,350.4258481,565.3262479,1.61325499,118.9216261
9_4_21_0,66.19965273,74.52769451,48,85.58600591,566.5979362,539.0671543,0.951410374,114.8576941
9_40_21_2,66.09428164,41.44466553,19.84732824,50.94232661,135.5042358,127.2489839,0.939077536,118.3615285
10_82_47_1,66.08806905,56.14243961,24.80620155,87.33904464,201.3802824,573.8170747,2.84942035,117.9278167
9_37_11_1,66.08468325,77.44796992,56.19834711,84.46081885,414.3321554,461.3705966,1.113528339,118.5046847
10_54_50_3,66.07812384,66.62355685,56.12244898,72.75810395,411.7315614,512.4982629,1.244738832,118.2616304
9_17_11_0,66.07291039,43.97122686,33.07692308,49.21594146,256.7892,83.46092448,0.325017269,118.4999429
9_7_21_4,65.99730519,50.636027,45.52845528,48.67991257,216.6246126,144.5947082,0.667489748,118.4634443
9_7_21_2,65.9930991,43.02186699,35.71428571,32.99998515,158.308525,22.68256401,0.143280749,118.5938112
9_13_11_0,65.88234544,42.03668551,23.96694215,53.53847507,157.3188072,165.4810748,1.051883609,118.5456637
10_75_50_3,65.88038688,80.36322842,42.10526316,68.84276,42.26120074,211.7087405,5.009529706,116.5633396
9_100_11_1,65.84624137,58.06436599,52.71317829,50.44450539,354.8974318,102.2232692,0.288036092,118.2394144
9_32_45_0,65.79897237,34.88822108,21.05263158,68.80182705,91.37344523,1071.778465,11.72964927,118.4100733
10_25_50_1,65.75371554,40.49821797,23.33333333,90.85820181,211.1529073,160.0239856,0.757858311,118.1749698
10_80_47_0,65.68148341,85.47189351,61.44578313,94.18765719,384.240533,446.6592812,1.162447068,118.2087783
10_73_50_0,65.67943637,67.27199723,48.30508475,72.55974462,479.4829512,368.1199174,0.767743496,118.0813959
10_4_50_3,65.64105072,54.95628197,50.76923077,58.39305886,458.9447284,553.2070642,1.205389298,118.0303179
10_4_50_0,65.62033517,55.41577076,47.96747967,75.62704732,275.5688406,455.2930742,1.652193598,118.1908761
10_114_47_1,65.60295173,57.85876183,44.76190476,72.26157464,118.8140183,1256.488972,10.57525862,118.4132348
9_11_45_1,65.52648363,42.31014925,18.03278689,60.06366512,136.4602654,661.046483,4.844241517,118.5909745
10_58_50_1,65.50189966,44.84846894,16.93548387,63.1497277,84.12404731,750.7417991,8.924223491,118.0200322
9_58_45_1,65.41209496,37.71569572,10.48387097,57.53858652,82.14501681,1018.827776,12.40279466,118.0683436
9_101_21_4,65.32178622,41.31653437,22.90076336,64.48114779,102.572642,560.9250033,5.468563472,118.7153499
9_40_21_3,65.31712582,34.61483508,21.09375,26.97966908,121.8120588,71.33900113,0.585648103,118.5622943
10_31_50_0,65.31369862,41.08742341,27.2,53.88108803,296.4063424,206.6944589,0.697334805,118.4280612
9_7_11_1,65.29488094,42.95690672,36.50793651,46.01471689,70.99027918,163.6287412,2.304945735,118.4635007
9_101_21_2,65.2583057,38.90651198,14.96062992,47.93174991,83.27190027,188.9022956,2.268499878,118.6147351
9_55_21_2,65.2537523,57.1097821,40,60.49997454,224.6691433,134.3395111,0.597943755,118.3301727
9_69_45_1,65.13116544,51.25333722,32.0754717,44.42882826,199.4984769,156.1594282,0.782760002,100.7267188
10_82_50_1,65.1011744,40.37540422,14.41441441,67.0941669,165.6762174,332.7402997,2.008376971,117.0696737
9_101_21_1,65.09876327,30.75170036,13.00813008,38.36221283,125.050731,376.2340846,3.008651623,118.3330138
10_43_47_2,65.04085745,103.132338,64.22018349,92.89322928,807.1743727,798.9126111,0.989764589,112.128331
9_7_21_5,65.03151346,50.19726112,46.4,48.02925305,372.1775883,209.1104073,0.561856527,118.272908
9_13_11_3,64.99251908,77.04919766,43.26923077,68.7354559,283.210945,804.2038195,2.839593009,118.1252535
9_52_21_2,64.95945735,47.48125818,39.49579832,39.96453917,230.4183398,123.1389985,0.53441492,118.3382413
10_16_50_4,64.94828045,83.74998906,23.91304348,59.01481282,86.54398189,830.3484433,9.594525525,118.4499873
9_52_21_4,64.93871533,66.90103319,42.85714286,65.92922745,347.1264592,69.11916127,0.199118101,111.1729357
10_9_47_2,64.93834964,82.58856458,48.71794872,102.951642,176.035236,391.0480759,2.221419329,116.7272898
9_55_21_1,64.92275134,45.50606137,22.54901961,39.56837229,142.0407843,145.2529355,1.022614288,118.5997403
9_13_21_0,64.89477032,59.74162534,34.375,72.01664618,321.9431327,602.9361831,1.872803368,118.7121831
10_93_50_1,64.8245723,44.32501015,23.80952381,37.98467894,261.1164787,130.7145924,0.500598786,118.1457143
9_16_21_0,64.82255086,43.26434106,26.19047619,57.68333886,203.8498271,123.0084725,0.603426916,118.3673956
10_54_50_2,64.81943591,47.73716697,30,80.54212215,194.7531644,375.1014846,1.926035378,108.9045336
9_101_21_0,64.81891355,40.97208849,23.47826087,52.8123479,141.5460867,556.8520679,3.934068973,118.3430753
9_58_45_2,64.81477289,45.02355197,16.03773585,60.53097414,126.7097618,548.654973,4.330013452,118.5176903
10_33_47_1,64.802922,32.85183193,16.40625,38.04881672,124.5936827,197.195269,1.582706801,118.6509438
10_2_50_3,64.7550839,114.135572,70.58823529,95.00811193,480.7527102,611.7739506,1.272533545,113.7837891
10_75_50_2,64.74727373,68.18766508,53.65853659,58.64930036,167.5735038,773.1778961,4.613962699,118.2761806
9_69_45_0,64.7469393,51.82054833,31.4516129,67.21717192,350.1989912,267.687822,0.764387759,117.9804628
9_52_21_1,64.73452231,48.99440776,34.61538462,51.74893177,161.2093235,143.817201,0.892114661,118.4791321
10_4_47_0,64.6742202,55.00073731,44.96124031,83.22873584,426.6662221,174.7826193,0.409647191,117.9994754
9_57_11_1,64.60773806,31.93926748,5.555555556,41.34522582,140.3499529,164.99132,1.175570897,118.3819048
10_48_47_0,64.59893316,86.29166206,45.53571429,94.02426117,239.8478831,1103.897832,4.602491455,117.849147
9_16_45_0,64.57460078,63.63303466,22.85714286,78.36925041,96.33031839,427.1249076,4.43396134,114.9904927
9_57_11_0,64.55244266,42.16349476,5.46875,62.70744588,140.2231009,46.1738709,0.329288616,118.5516638
9_52_21_3,64.52264518,50.0320753,42.51968504,34.41828193,283.37713,49.06748347,0.173152588,117.935696
10_114_50_1,64.52122629,71.08152623,57.79816514,77.36645529,408.1559046,120.2977784,0.294734872,118.1110301
9_17_21_0,64.52006334,46.63092299,46.09375,44.89069551,279.4766514,121.9539735,0.436365517,118.4038035
9_37_42_0,64.50922873,81.29684049,49.45054945,96.62887671,177.8395713,984.2565864,5.534519562,118.1663518
10_31_47_1,64.50148448,42.33761603,27.92792793,65.40305824,179.4411568,432.2177843,2.408688129,118.3955709
9_7_21_0,64.49892077,84.65671263,50,58.4179327,143.6473452,119.0231415,0.828578777,118.052287
9_13_21_4,64.47608387,52.1040232,33.61344538,63.67405263,176.6849414,247.6156365,1.401452973,118.3418019
10_43_47_0,64.4212475,96.83440126,57.42574257,87.62413516,718.9304292,566.8755909,0.788498536,118.5291022
10_37_50_1,64.27241745,88.25659155,61,97.92085264,737.5141933,657.0458012,0.890892416,118.0557367
10_54_50_0,64.20629971,46.77852882,33.92857143,53.72386879,434.8401055,274.3245922,0.630863135,118.7043318
9_33_45_0,64.20156979,42.718685,28,73.16408788,105.0442768,380.9744987,3.626799195,118.3645429
9_43_21_1,64.19715712,106.8828232,69.72477064,75.81760638,1077.702181,517.1047605,0.479821577,118.0071844
10_11_50_0,64.15525209,43.23408938,29.50819672,50.24952667,136.8278405,295.1146537,2.156831918,118.1378038
9_16_45_1,64.12538478,74.60870794,18.98734177,80.81219614,426.540012,431.557927,1.01176423,118.374922
10_37_47_0,64.09376915,103.5647765,55.88235294,112.9332903,1038.290233,996.9010793,0.960137202,118.476983
9_17_11_1,64.09018432,44.77933539,38.88888889,39.93302461,234.9198691,178.2210324,0.758646057,118.7502173
9_17_21_1,64.08598762,47.99600202,40.47619048,36.44529702,285.1437286,104.314747,0.365832163,118.7842334
10_33_50_2,64.07722053,44.45432514,23.4375,59.88106233,63.48140534,305.0903857,4.805980336,118.4502957
9_13_21_3,64.02748932,41.45372748,28.92561983,34.76400118,169.2546949,129.8353383,0.767100366,118.211668
9_67_42_0,64.02581631,66.79451696,45.45454545,68.63198379,671.6598377,423.7132372,0.63084498,112.6176507
10_52_50_0,63.97788509,39.90455311,27.34375,62.52150921,245.0004482,254.5276272,1.038886374,118.5764059
10_58_47_1,63.94269934,45.13310795,20,62.91751712,137.6744041,993.5753933,7.216849055,118.3406605
9_57_21_0,63.87070844,64.30623232,21.83908046,64.68246434,349.3441404,106.2729123,0.304206941,116.4058601
10_43_50_3,63.72085687,89.65061659,59.40594059,83.2600415,570.9319687,782.5789263,1.370704338,117.987362
10_40_50_0,63.69750909,55.02003677,31.31313131,65.08337817,117.5468276,470.7976456,4.005192273,118.6647563
9_43_21_2,63.69540278,94.39243689,59.63302752,67.42812848,605.0809886,389.987319,0.64452086,118.1577422
10_4_50_2,63.69343244,68.05990171,54.47154472,71.08763786,493.0509067,107.9102732,0.218862336,118.2109458
9_7_42_0,63.68489056,47.14089555,39.68253968,63.72677179,123.5017549,108.1519907,0.875712177,118.5278031
10_52_47_2,63.65272994,42.81370812,28.57142857,56.8703271,359.0694171,131.4207024,0.366003609,118.3248232
9_7_11_0,63.65009239,48.54094253,36.36363636,45.81311839,209.7613294,154.6126732,0.737088545,118.6239524
9_43_21_4,63.64628284,88.92717958,61.0619469,78.76986224,1034.513867,587.159995,0.567570927,118.7198245
10_26_47_0,63.64144582,45.41453442,30.17241379,70.97354577,94.3158638,300.4150808,3.18520203,118.527354
9_58_42_0,63.6348202,41.41424773,16.81415929,80.46347911,122.2247874,552.5901935,4.521097605,118.3202882
9_100_45_0,63.59938556,55.78949105,40.49586777,69.20692216,209.2818409,388.2499503,1.855153551,118.0868758
9_43_21_3,63.53762764,88.92229741,62.60869565,66.90023815,932.9331052,449.5821458,0.481901803,117.9268869
10_114_50_2,63.51488317,65.93579089,49.16666667,82.7055066,324.4557455,841.1516219,2.592500314,118.5419825
9_55_21_4,63.50421851,69.38627586,47.86324786,54.3824673,433.6446932,97.04389221,0.223786648,118.1105251
10_33_47_0,63.47841762,41.14069324,24.8,57.64855813,107.0561295,305.1522346,2.850394797,118.0169311
10_33_50_3,63.43086112,39.29427056,29.6,56.54899918,119.7095868,505.5716666,4.223318117,118.3899183
9_19_21_4,63.42851215,82.48756973,63.30275229,66.35415989,569.5854818,1266.609926,2.223739836,118.7748832
9_52_11_0,63.42830792,49.04027185,36.97478992,43.45679299,406.3803187,160.014485,0.393755499,118.4751903
9_40_42_0,63.40894122,33.93092041,19.67213115,45.65206432,126.1327792,229.8870255,1.822579563,117.9880067
10_26_47_1,63.38381003,51.60655151,30.17241379,81.36837105,166.9495675,847.6375231,5.077207063,118.5676112
10_9_50_0,63.37198917,70.41256259,50,63.38941637,262.5693536,496.2922648,1.890137817,118.9690103
10_40_47_1,63.32653523,43.67967124,23.75,56.75021075,118.0236339,574.0789591,4.864101705,110.8687522
9_102_45_0,63.24890551,66.74172384,52.94117647,53.33150402,252.2863854,872.0526026,3.456597951,118.1142194
9_57_11_2,63.17245253,42.22248833,21.13821138,54.10545756,188.1277583,118.3778028,0.629241553,118.6714936
10_33_50_1,63.16373361,35.46274158,20.16129032,38.41846838,163.8305028,386.1078025,2.356751617,118.8024969
10_33_50_0,63.14801518,40.96845234,30,72.5368584,77.03448538,421.9742282,5.477731514,118.2993523
10_58_50_0,63.1126489,42.78867789,8.695652174,71.16601665,79.68421395,340.2577483,4.270077239,118.0399967
10_40_47_2,63.09322514,40.35950737,16.85393258,53.44138667,82.80218095,190.2666028,2.297845306,114.1721229
9_30_42_0,63.07605993,69.52014886,29.12621359,71.0995769,283.7634594,590.5016839,2.080964495,118.7879384
9_13_11_4,63.03858358,57.60162169,48.36065574,56.04276954,619.7866323,339.6578698,0.548023872,118.0752047
10_31_50_1,63.01060174,42.85876317,31.40495868,61.27371667,218.1776251,512.3926925,2.348511641,118.6595036
10_52_50_4,62.93921811,66.9684758,50.94339623,56.80996071,424.9163984,329.5840997,0.775644576,118.3449686
10_114_50_3,62.88821913,60.06550517,52.41935484,69.84566258,327.8655457,810.522462,2.472118442,118.6321818
10_9_50_1,62.88484012,69.57890225,61.26126126,76.53016055,290.460816,410.268014,1.412472841,118.2748148
10_52_50_1,62.87925247,61.51796482,36.8,57.6376616,329.4266832,53.77498796,0.163238106,118.4657185
9_40_11_0,62.86111501,42.39645712,26.2295082,48.05805372,336.7085319,145.4230536,0.431895957,117.9855366
9_61_11_0,62.81162716,42.80588242,26.82926829,53.92281303,316.5219651,82.69070416,0.261247917,118.4624128
9_32_42_0,62.80391492,37.55856681,12.09677419,85.36352133,139.9916708,655.3331978,4.681229918,118.2129991
10_37_47_2,62.79545312,111.9719919,65.625,102.3569286,1230.347037,1021.511741,0.830263097,116.9679784
9_61_21_1,62.76946869,34.04791158,16.21621622,46.11604389,130.1212248,68.32788339,0.525109439,118.4987769
9_33_42_0,62.7676633,59.88505357,39.16666667,80.61521468,217.6884085,537.2817218,2.468122789,118.2490267
10_37_50_0,62.75004504,99.1660749,70,89.63338677,1018.812291,716.4185949,0.70318998,118.699476
9_52_11_1,62.71694046,43.15871182,29.91452991,46.29100885,287.628521,110.4138699,0.383876639,118.193418
10_1_47_2,62.71396783,54.80665569,27.08333333,103.1199686,144.5692484,1950.869359,13.49435915,117.9604029
10_48_47_1,62.63161545,85.54746533,51.48514851,78.99158201,505.1574698,952.22452,1.885005324,118.3284522
9_43_21_5,62.61410221,95.3060789,67.85714286,93.10257322,1024.671788,1022.942276,0.99831213,118.6194527
10_114_50_0,62.60377209,66.28559089,54.54545455,71.20713744,505.1232716,150.9050328,0.298748922,115.8760908
10_80_47_2,62.59392861,79.42782747,65.34653465,65.05728092,130.3105704,554.1816999,4.252776259,118.7098752
10_43_50_1,62.56748387,91.79734483,56.8627451,98.71512437,302.9366473,919.6173593,3.035675503,117.8775134
10_25_50_3,62.56606986,73.92454889,44.55445545,72.34850302,488.0179396,182.2684654,0.373487224,118.2251588
10_52_50_2,62.49930036,76.16266653,59.50413223,53.57478572,750.417239,104.7649379,0.139608917,118.0129064
10_43_50_0,62.46014218,96.12792928,53.57142857,89.52095041,1049.860515,1484.310987,1.413817328,118.7463159
10_75_50_1,62.39633342,66.62276386,34.32835821,89.84806616,80.67222788,533.1866488,6.609296195,116.8538214
9_61_11_4,62.38151684,37.60559408,18.69918699,44.53067458,334.8228828,164.11927,0.490167424,118.2410441
9_7_45_0,62.30633272,51.42127225,46.15384615,49.09403551,244.0701541,112.7469674,0.461944918,117.998885
9_40_45_0,62.29998109,36.51849028,22.13114754,34.78522094,220.9656914,127.516946,0.577089345,118.6581087
10_40_50_1,62.29772777,59.96488816,32.92682927,63.39712484,141.4794517,84.41860464,0.596684562,118.3635512
10_26_47_2,62.27862924,65.58762643,32.65306122,101.8080165,187.9707553,583.2089097,3.102657692,118.0140743
9_19_45_1,62.23848303,72.32611389,57.52212389,70.42915121,142.276838,629.4781888,4.4243195,118.7215246
10_9_50_2,62.22960752,73.91213385,62.26415094,57.15925452,506.657544,857.8729867,1.693200855,118.6470646
9_17_21_3,62.20945179,43.42126646,35.24590164,46.92776967,225.3143055,65.87502453,0.292369472,118.0133623
9_55_11_0,62.20383893,48.54708273,30,71.44894608,300.5104892,72.19049505,0.240226207,116.2995272
9_100_45_3,62.1477301,61.19992472,48.54368932,66.55614475,189.0143499,123.3063374,0.652364952,118.1973031
10_40_47_0,62.03080078,44.49938381,23.45679012,61.42053895,86.42749927,502.3043822,5.811858337,116.1601697
10_58_47_2,61.99790423,43.70566447,16.94915254,75.06169236,114.8869265,1285.901657,11.1927588,118.0012609
10_1_47_1,61.94605727,43.56436046,24.29906542,85.16887678,152.0668549,429.6170591,2.825185405,118.5220236
9_61_11_1,61.90118565,35.98297326,19.49152542,44.45436891,51.66680506,55.2097023,1.068572021,118.7441547
9_61_21_0,61.83732817,49.11557325,10.34482759,50.6639401,7.222320696,42.31567556,5.859013653,118.4685912
9_40_11_1,61.78682016,48.57622082,40.6504065,56.96037792,475.3095578,268.1331694,0.564123243,118.8589087
10_80_50_0,61.770426,70.80844924,58.24175824,85.112843,164.5728837,331.0399063,2.011509423,117.2949783
9_43_21_6,61.73481671,101.084235,64.1509434,83.85390523,1078.726801,177.0258083,0.164106248,118.037296
10_25_50_2,61.68087767,77.3034701,53.63636364,74.95641315,546.1155676,606.9662186,1.111424494,118.0244028
10_93_50_3,61.65834219,44.64326761,26.54867257,40.45244361,328.7982033,263.3791993,0.801036005,118.445323
9_32_45_1,61.64145389,27.80006649,8.333333333,38.03474303,55.9881313,260.8961974,4.659848282,118.1692392
10_4_50_1,61.64103678,60.66569489,57.39130435,50.5327168,378.7851916,129.3410652,0.341462834,118.6223761
10_114_47_0,61.62784706,55.03940837,44.26229508,73.07545437,387.7667232,332.821129,0.858302451,118.5535348
9_100_42_0,61.55739905,57.8085436,48.24561404,59.10950887,347.8778099,325.4238171,0.935454369,118.1757206
10_52_50_3,61.48349292,71.146731,61.47540984,58.67678185,812.7228,232.6634079,0.286276462,117.9324065
10_48_50_0,61.45456614,84.27957613,48.14814815,86.7779842,536.4665842,552.4832165,1.029855787,118.1406422
10_40_50_3,61.4364342,47.50428612,36.36363636,49.08101307,108.2897921,82.47270905,0.761592644,110.7731835
10_1_47_0,61.33858446,56.91536317,39.08045977,84.28150742,83.57761769,1914.11787,22.90227842,117.7096794
9_55_45_0,61.32851647,50.14596977,32.92682927,47.21884506,180.3842479,202.7659339,1.12407783,112.4589208
9_13_45_0,61.17814013,54.6875984,39.65517241,50.36201096,217.6064815,115.6925955,0.531659695,118.0493686
9_7_45_1,61.11398662,57.49012976,49.10714286,49.69481268,296.8351652,72.62586706,0.244667329,118.610434
9_61_11_2,60.93116657,39.34783497,16.66666667,48.44904715,119.8469158,187.8348927,1.567290167,118.2410441
10_9_47_1,60.82636042,86.39451159,51.40186916,99.59330479,327.1575491,329.6668608,1.007670041,118.6086899
10_48_50_1,60.81980764,76.22569202,56.25,58.66652438,649.8301976,1037.183262,1.596083508,118.7498205
10_40_50_2,60.73338868,38.18537557,26.76056338,27.29278367,133.8632959,73.05563846,0.545748093,116.7972849
9_11_42_0,60.56148866,57.52139656,45.19230769,56.14608005,292.6897767,380.4328746,1.299781902,118.1769117
10_43_50_2,60.38820964,99.73744015,61.53846154,80.55956343,715.47349,319.8054652,0.446984367,118.0772381
9_4_45_0,60.36375891,81.71145292,64.42307692,68.86018,443.6410167,522.5617645,1.177893262,118.5510461
9_100_45_1,60.33743382,57.61831392,45.19230769,58.78582446,275.9480285,528.4839329,1.915157487,118.6892062
9_100_45_2,60.24144309,71.7344279,56.52173913,65.44690414,531.8519474,91.93352691,0.172855486,117.2636909
9_43_45_0,60.02493792,78.50081427,55.88235294,83.41029788,340.774052,2269.977007,6.661237832,118.0692946
10_48_50_2,60.00530566,76.45217716,51.78571429,76.699255,662.0522285,292.7687704,0.442214009,117.9908443
9_17_45_1,59.92634327,63.5357845,47.89915966,80.41841823,239.2312972,78.87790396,0.329713983,118.7057246
9_61_45_3,59.89619191,61.25128654,24.79338843,87.90722446,262.0888208,825.5859253,3.150023426,118.6787719
9_61_21_2,59.89022527,58.95964948,12.60504202,79.91092071,294.9801796,1032.852797,3.501431175,118.5792719
9_61_21_4,59.88072596,47.63922739,17.5,62.70991417,129.6113179,92.66326147,0.714931867,118.7603858
10_48_50_4,59.77605731,81.35163779,53.93258427,81.81626847,698.9573368,415.1449933,0.593948974,118.420265
9_61_21_3,59.6397073,54.76275299,16.80672269,71.16493444,100.8121692,611.3995893,6.064739942,118.5993957
9_19_42_0,59.59488858,79.47843989,44.28571429,99.31719396,167.26733,1436.81381,8.589924947,118.0638532
9_17_45_2,59.5771074,69.62390096,59.3220339,75.28632738,459.0385633,511.8179203,1.114978046,117.9848396
9_52_45_0,59.55004881,62.21575222,43.68932039,59.71601948,341.3291216,33.12821729,0.097056522,116.2803181
9_17_45_0,59.49292234,60.9667649,41.73913043,85.75474575,219.7267882,185.575365,0.844573238,118.4153681
10_48_50_5,59.47443745,69.26207222,54.62962963,59.15146883,544.4755537,210.807504,0.387175333,118.0707365
9_61_11_3,59.47240477,48.285272,26.36363636,66.31790604,119.8606881,412.5293272,3.441740021,117.9794267
9_61_45_2,59.4133742,66.87493571,30,93.27299615,161.6598893,181.3718264,1.12193462,118.4674744
9_52_45_1,59.33944057,63.51497117,50,46.59472005,609.6556233,275.6274718,0.45210355,118.0111891
9_17_42_0,59.25741868,52.6050485,48.03921569,63.35182479,212.8172783,83.19113386,0.39090404,117.8686556
9_75_45_1,59.2273015,52.2368493,34.72222222,53.03775806,245.4753236,533.6490356,2.173941672,101.9014305
9_43_45_1,59.15164956,90.76106955,70.37037037,63.49980182,917.0077894,193.1317229,0.210610777,117.9087107
9_61_21_5,58.96999895,42.44289942,22.4137931,57.88093842,79.84138589,218.0929981,2.731578312,118.659767
9_52_42_0,58.96412447,71.5358265,47.61904762,50.70633409,423.2095909,82.78847255,0.195620502,117.9777759
10_48_50_3,58.80036079,73.15073913,53.57142857,69.82033423,227.8349986,383.7938352,1.684525369,117.5015043
10_37_47_1,58.72129363,107.3822883,68.75,110.3857751,1118.421769,1382.729859,1.236322376,115.7909548
10_32_47_0,58.65599841,38.91052529,20.96774194,51.37876953,41.22383724,39.50571077,0.958322015,118.332931
9_61_45_0,58.53787075,43.00783534,21.62162162,54.71174095,145.2480454,358.2563945,2.466514393,118.7894516
10_18_47_2,58.53724866,100.7315519,80,64.93919332,218.4074245,266.4039415,1.219756801,112.727674
9_101_42_0,58.46474336,57.0280223,29.88505747,81.4536553,122.9299291,106.5628482,0.866858453,118.0802141
9_101_45_1,58.38959941,49.18183453,20.6185567,84.78024068,379.0954915,1086.677835,2.866501605,118.4717268
9_61_42_0,58.36616578,56.50950909,25.2173913,89.56867886,127.0001716,279.7818481,2.203003701,118.3463621
9_4_42_0,58.35536314,76.60282264,58.75,81.65234857,227.4623839,207.1766028,0.910816985,118.042999
9_4_45_1,58.24481489,66.87230858,50,58.66068942,299.60619,334.5167728,1.116521567,106.4307154
9_61_45_1,57.74772742,42.33341009,21.92982456,49.43609327,86.19018683,86.38838293,1.00229952,118.3266094
9_75_45_0,57.7016858,52.39358823,40.42553191,40.09191289,988.2269344,2527.460828,2.557571283,117.992719
9_101_45_3,57.66450342,80.40902885,42.45283019,87.10142759,581.7500768,714.7802362,1.228672354,118.1396477
10_32_47_2,57.43456058,80.88953078,53.57142857,72.067334,99.52389148,1318.773086,13.25081913,118.1924288
9_84_21_3,57.29832143,79.89675713,100,56.49553876,32.78260642,17.04707939,0.520003784,101.4189461
9_101_45_5,57.25179794,42.57810162,23.89380531,58.34699408,127.3165859,145.8931593,1.14590851,118.0490807
10_32_50_0,56.90908502,58.40184812,35.48387097,70.99335631,115.6851474,364.7876036,3.153279498,118.4405853
9_101_45_4,56.7897805,33.96091652,17.89473684,47.8546314,101.7818804,140.4546979,1.379957782,118.6931128
9_78_11_2,56.55852054,62.44711536,43.75,57.13923869,406.8747546,128.0578099,0.314735206,118.372075
10_32_50_1,56.39793626,65.05769686,31.25,80.1177394,134.2372629,420.6534716,3.133656502,118.2398555
9_37_45_1,56.39048434,96.55110093,58.75,104.2169654,330.8812857,659.9119063,1.994406861,118.3506988
9_78_21_0,56.12520769,72.98263747,46.15384615,66.54961613,392.5414408,1098.56896,2.798606328,118.6897365
10_78_50_0,55.77922668,64.468954,46.66666667,82.71909086,327.2189532,980.0595162,2.995118427,118.101044
9_43_42_0,55.75556279,93.63633693,64.70588235,70.56040681,849.9514408,148.3960981,0.174593619,118.5557232
9_19_45_0,55.73534087,74.5415178,50,62.37262931,302.4338247,762.7548068,2.522055222,118.7015075
10_1_50_0,55.56476182,38.27679217,24,64.63025939,111.9221862,545.3771296,4.872824131,118.6489555
9_78_21_1,55.51244605,87.70330258,52.3255814,81.88305167,252.6088052,844.8502587,3.344500434,118.3102808
9_78_21_3,55.3353323,75.877992,56,69.22045132,457.641746,286.9701636,0.627062907,115.7938906
10_26_50_0,55.12678292,55.90314918,37.73584906,70.3805937,395.702235,350.2387261,0.885106767,118.077093
9_78_21_6,55.02429624,79.36936355,53.84615385,59.58584319,716.4366835,234.0594197,0.326699379,116.6326873
9_78_21_2,54.8231505,103.7627421,52.38095238,97.00608852,437.2892756,711.0587259,1.626060289,118.0606389
9_78_11_1,53.70823251,74.07222568,47.72727273,63.47087293,519.2288437,214.1502271,0.412439004,118.6017492
9_78_21_5,53.6959765,75.37565929,59.34065934,53.49103115,399.1419838,143.1240433,0.358579275,117.8010114
10_78_50_2,53.51859377,63.85840819,50,80.21519821,340.9842918,314.4700449,0.922242029,118.5519261
9_78_21_4,53.48128106,101.7032857,60.46511628,96.48515465,749.258673,158.9682093,0.212167326,117.9507965
9_78_11_0,53.08065062,66.21164053,47.61904762,56.10438072,225.1457448,505.5445971,2.245410401,118.5018909
10_19_50_0,52.03079156,59.92261453,46,55.40028711,103.8589178,256.2662696,2.467445983,116.2533475
10_19_50_1,51.70963992,46.31205423,28.84615385,49.2718694,39.32059817,137.5065563,3.497061661,117.3574632
